Wektor częstotliwości.
0;1.23508e-05;2.47015e-05;3.70523e-05;4.94031e-05;6.17538e-05;7.41046e-05;8.64553e-05;9.88061e-05;0.000111157;0.000123508;0.000135858;0.000148209;0.00016056;0.000172911;0.000185261;0.000197612;0.000209963;0.000222314;0.000234664;0.000247015;0.000259366;0.000271717;0.000284068;0.000296418;0.000308769;0.00032112;0.000333471;0.000345821;0.000358172;0.000370523;0.000382874;0.000395224;0.000407575;0.000419926;0.000432277;0.000444627;0.000456978;0.000469329;0.00048168;0.00049403;0.000506381;0.000518732;0.000531083;0.000543434;0.000555784;0.000568135;0.000580486;0.000592837;0.000605187;0.000617538;0.000629889;0.00064224;0.00065459;0.000666941;0.000679292;0.000691643;0.000703993;0.000716344;0.000728695;0.000741046;0.000753397;0.000765747;0.000778098;0.000790449;0.0008028;0.00081515;0.000827501;0.000839852;0.000852203;0.000864553;0.000876904;0.000889255;0.000901606;0.000913956;0.000926307;0.000938658;0.000951009;0.000963359;0.00097571;0.000988061;0.00100041;0.00101276;0.00102511;0.00103746;0.00104981;0.00106217;0.00107452;0.00108687;0.00109922;0.00111157;0.00112392;0.00113627;0.00114862;0.00116097;0.00117332;0.00118567;0.00119802;0.00121037;0.00122273;0.00123508;0.00124743;0.00125978;0.00127213;0.00128448;0.00129683;0.00130918;0.00132153;0.00133388;0.00134623;0.00135858;0.00137093;0.00138329;0.00139564;0.00140799;0.00142034;0.00143269;0.00144504;0.00145739;0.00146974;0.00148209;0.00149444;0.00150679;0.00151914;0.00153149;0.00154385;0.0015562;0.00156855;0.0015809;0.00159325;0.0016056;0.00161795;0.0016303;0.00164265;0.001655;0.00166735;0.0016797;0.00169205;0.00170441;0.00171676;0.00172911;0.00174146;0.00175381;0.00176616;0.00177851;0.00179086;0.00180321;0.00181556;0.00182791;0.00184026;0.00185261;0.00186497;0.00187732;0.00188967;0.00190202;0.00191437;0.00192672;0.00193907;0.00195142;0.00196377;0.00197612;0.00198847;0.00200082;0.00201317;0.00202553;0.00203788;0.00205023;0.00206258;0.00207493;0.00208728;0.00209963;0.00211198;0.00212433;0.00213668;0.00214903;0.00216138;0.00217373;0.00218608;0.00219844;0.00221079;0.00222314;0.00223549;0.00224784;0.00226019;0.00227254;0.00228489;0.00229724;0.00230959;0.00232194;0.00233429;0.00234664;0.002359;0.00237135;0.0023837;0.00239605;0.0024084;0.00242075;0.0024331;0.00244545;0.0024578;0.00247015;0.0024825;0.00249485;0.0025072;0.00251956;0.00253191;0.00254426;0.00255661;0.00256896;0.00258131;0.00259366;0.00260601;0.00261836;0.00263071;0.00264306;0.00265541;0.00266776;0.00268012;0.00269247;0.00270482;0.00271717;0.00272952;0.00274187;0.00275422;0.00276657;0.00277892;0.00279127;0.00280362;0.00281597;0.00282832;0.00284068;0.00285303;0.00286538;0.00287773;0.00289008;0.00290243;0.00291478;0.00292713;0.00293948;0.00295183;0.00296418;0.00297653;0.00298888;0.00300124;0.00301359;0.00302594;0.00303829;0.00305064;0.00306299;0.00307534;0.00308769;0.00310004;0.00311239;0.00312474;0.00313709;0.00314944;0.0031618;0.00317415;0.0031865;0.00319885;0.0032112;0.00322355;0.0032359;0.00324825;0.0032606;0.00327295;0.0032853;0.00329765;0.00331;0.00332236;0.00333471;0.00334706;0.00335941;0.00337176;0.00338411;0.00339646;0.00340881;0.00342116;0.00343351;0.00344586;0.00345821;0.00347056;0.00348291;0.00349527;0.00350762;0.00351997;0.00353232;0.00354467;0.00355702;0.00356937;0.00358172;0.00359407;0.00360642;0.00361877;0.00363112;0.00364348;0.00365583;0.00366818;0.00368053;0.00369288;0.00370523;0.00371758;0.00372993;0.00374228;0.00375463;0.00376698;0.00377933;0.00379168;0.00380403;0.00381639;0.00382874;0.00384109;0.00385344;0.00386579;0.00387814;0.00389049;0.00390284;0.00391519;0.00392754;0.00393989;0.00395224;0.00396459;0.00397695;0.0039893;0.00400165;0.004014;0.00402635;0.0040387;0.00405105;0.0040634;0.00407575;0.0040881;0.00410045;0.0041128;0.00412515;0.00413751;0.00414986;0.00416221;0.00417456;0.00418691;0.00419926;0.00421161;0.00422396;0.00423631;0.00424866;0.00426101;0.00427336;0.00428571;0.00429807;0.00431042;0.00432277;0.00433512;0.00434747;0.00435982;0.00437217;0.00438452;0.00439687;0.00440922;0.00442157;0.00443392;0.00444627;0.00445863;0.00447098;0.00448333;0.00449568;0.00450803;0.00452038;0.00453273;0.00454508;0.00455743;0.00456978;0.00458213;0.00459448;0.00460683;0.00461919;0.00463154;0.00464389;0.00465624;0.00466859;0.00468094;0.00469329;0.00470564;0.00471799;0.00473034;0.00474269;0.00475504;0.00476739;0.00477974;0.0047921;0.00480445;0.0048168;0.00482915;0.0048415;0.00485385;0.0048662;0.00487855;0.0048909;0.00490325;0.0049156;0.00492795;0.0049403;0.00495266;0.00496501;0.00497736;0.00498971;0.00500206;0.00501441;0.00502676;0.00503911;0.00505146;0.00506381;0.00507616;0.00508851;0.00510086;0.00511322;0.00512557;0.00513792;0.00515027;0.00516262;0.00517497;0.00518732;0.00519967;0.00521202;0.00522437;0.00523672;0.00524907;0.00526142;0.00527378;0.00528613;0.00529848;0.00531083;0.00532318;0.00533553;0.00534788;0.00536023;0.00537258;0.00538493;0.00539728;0.00540963;0.00542198;0.00543434;0.00544669;0.00545904;0.00547139;0.00548374;0.00549609;0.00550844;0.00552079;0.00553314;0.00554549;0.00555784;0.00557019;0.00558254;0.0055949;0.00560725;0.0056196;0.00563195;0.0056443;0.00565665;0.005669;0.00568135;0.0056937;0.00570605;0.0057184;0.00573075;0.0057431;0.00575546;0.00576781;0.00578016;0.00579251;0.00580486;0.00581721;0.00582956;0.00584191;0.00585426;0.00586661;0.00587896;0.00589131;0.00590366;0.00591602;0.00592837;0.00594072;0.00595307;0.00596542;0.00597777;0.00599012;0.00600247;0.00601482;0.00602717;0.00603952;0.00605187;0.00606422;0.00607658;0.00608893;0.00610128;0.00611363;0.00612598;0.00613833;0.00615068;0.00616303;0.00617538;0.00618773;0.00620008;0.00621243;0.00622478;0.00623714;0.00624949;0.00626184;0.00627419;0.00628654;0.00629889;0.00631124;0.00632359;0.00633594;0.00634829;0.00636064;0.00637299;0.00638534;0.00639769;0.00641005;0.0064224;0.00643475;0.0064471;0.00645945;0.0064718;0.00648415;0.0064965;0.00650885;0.0065212;0.00653355;0.0065459;0.00655825;0.00657061;0.00658296;0.00659531;0.00660766;0.00662001;0.00663236;0.00664471;0.00665706;0.00666941;0.00668176;0.00669411;0.00670646;0.00671881;0.00673117;0.00674352;0.00675587;0.00676822;0.00678057;0.00679292;0.00680527;0.00681762;0.00682997;0.00684232;0.00685467;0.00686702;0.00687937;0.00689173;0.00690408;0.00691643;0.00692878;0.00694113;0.00695348;0.00696583;0.00697818;0.00699053;0.00700288;0.00701523;0.00702758;0.00703993;0.00705229;0.00706464;0.00707699;0.00708934;0.00710169;0.00711404;0.00712639;0.00713874;0.00715109;0.00716344;0.00717579;0.00718814;0.00720049;0.00721285;0.0072252;0.00723755;0.0072499;0.00726225;0.0072746;0.00728695;0.0072993;0.00731165;0.007324;0.00733635;0.0073487;0.00736105;0.00737341;0.00738576;0.00739811;0.00741046;0.00742281;0.00743516;0.00744751;0.00745986;0.00747221;0.00748456;0.00749691;0.00750926;0.00752161;0.00753397;0.00754632;0.00755867;0.00757102;0.00758337;0.00759572;0.00760807;0.00762042;0.00763277;0.00764512;0.00765747;0.00766982;0.00768217;0.00769453;0.00770688;0.00771923;0.00773158;0.00774393;0.00775628;0.00776863;0.00778098;0.00779333;0.00780568;0.00781803;0.00783038;0.00784273;0.00785508;0.00786744;0.00787979;0.00789214;0.00790449;0.00791684;0.00792919;0.00794154;0.00795389;0.00796624;0.00797859;0.00799094;0.00800329;0.00801564;0.008028;0.00804035;0.0080527;0.00806505;0.0080774;0.00808975;0.0081021;0.00811445;0.0081268;0.00813915;0.0081515;0.00816385;0.0081762;0.00818856;0.00820091;0.00821326;0.00822561;0.00823796;0.00825031;0.00826266;0.00827501;0.00828736;0.00829971;0.00831206;0.00832441;0.00833676;0.00834912;0.00836147;0.00837382;0.00838617;0.00839852;0.00841087;0.00842322;0.00843557;0.00844792;0.00846027;0.00847262;0.00848497;0.00849732;0.00850968;0.00852203;0.00853438;0.00854673;0.00855908;0.00857143;0.00858378;0.00859613;0.00860848;0.00862083;0.00863318;0.00864553;0.00865788;0.00867024;0.00868259;0.00869494;0.00870729;0.00871964;0.00873199;0.00874434;0.00875669;0.00876904;0.00878139;0.00879374;0.00880609;0.00881844;0.0088308;0.00884315;0.0088555;0.00886785;0.0088802;0.00889255;0.0089049;0.00891725;0.0089296;0.00894195;0.0089543;0.00896665;0.008979;0.00899136;0.00900371;0.00901606;0.00902841;0.00904076;0.00905311;0.00906546;0.00907781;0.00909016;0.00910251;0.00911486;0.00912721;0.00913956;0.00915192;0.00916427;0.00917662;0.00918897;0.00920132;0.00921367;0.00922602;0.00923837;0.00925072;0.00926307;0.00927542;0.00928777;0.00930012;0.00931248;0.00932483;0.00933718;0.00934953;0.00936188;0.00937423;0.00938658;0.00939893;0.00941128;0.00942363;0.00943598;0.00944833;0.00946068;0.00947304;0.00948539;0.00949774;0.00951009;0.00952244;0.00953479;0.00954714;0.00955949;0.00957184;0.00958419;0.00959654;0.00960889;0.00962124;0.0096336;0.00964595;0.0096583;0.00967065;0.009683;0.00969535;0.0097077;0.00972005;0.0097324;0.00974475;0.0097571;0.00976945;0.0097818;0.00979416;0.00980651;0.00981886;0.00983121;0.00984356;0.00985591;0.00986826;0.00988061;0.00989296;0.00990531;0.00991766;0.00993001;0.00994236;0.00995471;0.00996707;0.00997942;0.00999177;0.0100041;0.0100165;0.0100288;0.0100412;0.0100535;0.0100659;0.0100782;0.0100906;0.0101029;0.0101153;0.0101276;0.01014;0.0101523;0.0101647;0.010177;0.0101894;0.0102017;0.0102141;0.0102264;0.0102388;0.0102511;0.0102635;0.0102758;0.0102882;0.0103005;0.0103129;0.0103252;0.0103376;0.0103499;0.0103623;0.0103746;0.010387;0.0103993;0.0104117;0.010424;0.0104364;0.0104487;0.0104611;0.0104734;0.0104858;0.0104981;0.0105105;0.0105228;0.0105352;0.0105476;0.0105599;0.0105723;0.0105846;0.010597;0.0106093;0.0106217;0.010634;0.0106464;0.0106587;0.0106711;0.0106834;0.0106958;0.0107081;0.0107205;0.0107328;0.0107452;0.0107575;0.0107699;0.0107822;0.0107946;0.0108069;0.0108193;0.0108316;0.010844;0.0108563;0.0108687;0.010881;0.0108934;0.0109057;0.0109181;0.0109304;0.0109428;0.0109551;0.0109675;0.0109798;0.0109922;0.0110045;0.0110169;0.0110292;0.0110416;0.0110539;0.0110663;0.0110786;0.011091;0.0111033;0.0111157;0.011128;0.0111404;0.0111527;0.0111651;0.0111774;0.0111898;0.0112021;0.0112145;0.0112268;0.0112392;0.0112515;0.0112639;0.0112762;0.0112886;0.0113009;0.0113133;0.0113256;0.011338;0.0113504;0.0113627;0.0113751;0.0113874;0.0113998;0.0114121;0.0114245;0.0114368;0.0114492;0.0114615;0.0114739;0.0114862;0.0114986;0.0115109;0.0115233;0.0115356;0.011548;0.0115603;0.0115727;0.011585;0.0115974;0.0116097;0.0116221;0.0116344;0.0116468;0.0116591;0.0116715;0.0116838;0.0116962;0.0117085;0.0117209;0.0117332;0.0117456;0.0117579;0.0117703;0.0117826;0.011795;0.0118073;0.0118197;0.011832;0.0118444;0.0118567;0.0118691;0.0118814;0.0118938;0.0119061;0.0119185;0.0119308;0.0119432;0.0119555;0.0119679;0.0119802;0.0119926;0.0120049;0.0120173;0.0120296;0.012042;0.0120543;0.0120667;0.012079;0.0120914;0.0121037;0.0121161;0.0121284;0.0121408;0.0121532;0.0121655;0.0121779;0.0121902;0.0122026;0.0122149;0.0122273;0.0122396;0.012252;0.0122643;0.0122767;0.012289;0.0123014;0.0123137;0.0123261;0.0123384;0.0123508;0.0123631;0.0123755;0.0123878;0.0124002;0.0124125;0.0124249;0.0124372;0.0124496;0.0124619;0.0124743;0.0124866;0.012499;0.0125113;0.0125237;0.012536;0.0125484;0.0125607;0.0125731;0.0125854;0.0125978;0.0126101;0.0126225;0.0126348;0.0126472;0.0126595;0.0126719;0.0126842;0.0126966;0.0127089;0.0127213;0.0127336;0.012746;0.0127583;0.0127707;0.012783;0.0127954;0.0128077;0.0128201;0.0128324;0.0128448;0.0128571;0.0128695;0.0128818;0.0128942;0.0129065;0.0129189;0.0129312;0.0129436;0.0129559;0.0129683;0.0129807;0.012993;0.0130054;0.0130177;0.0130301;0.0130424;0.0130548;0.0130671;0.0130795;0.0130918;0.0131042;0.0131165;0.0131289;0.0131412;0.0131536;0.0131659;0.0131783;0.0131906;0.013203;0.0132153;0.0132277;0.01324;0.0132524;0.0132647;0.0132771;0.0132894;0.0133018;0.0133141;0.0133265;0.0133388;0.0133512;0.0133635;0.0133759;0.0133882;0.0134006;0.0134129;0.0134253;0.0134376;0.01345;0.0134623;0.0134747;0.013487;0.0134994;0.0135117;0.0135241;0.0135364;0.0135488;0.0135611;0.0135735;0.0135858;0.0135982;0.0136105;0.0136229;0.0136352;0.0136476;0.0136599;0.0136723;0.0136846;0.013697;0.0137093;0.0137217;0.013734;0.0137464;0.0137587;0.0137711;0.0137835;0.0137958;0.0138082;0.0138205;0.0138329;0.0138452;0.0138576;0.0138699;0.0138823;0.0138946;0.013907;0.0139193;0.0139317;0.013944;0.0139564;0.0139687;0.0139811;0.0139934;0.0140058;0.0140181;0.0140305;0.0140428;0.0140552;0.0140675;0.0140799;0.0140922;0.0141046;0.0141169;0.0141293;0.0141416;0.014154;0.0141663;0.0141787;0.014191;0.0142034;0.0142157;0.0142281;0.0142404;0.0142528;0.0142651;0.0142775;0.0142898;0.0143022;0.0143145;0.0143269;0.0143392;0.0143516;0.0143639;0.0143763;0.0143886;0.014401;0.0144133;0.0144257;0.014438;0.0144504;0.0144627;0.0144751;0.0144874;0.0144998;0.0145121;0.0145245;0.0145368;0.0145492;0.0145615;0.0145739;0.0145863;0.0145986;0.014611;0.0146233;0.0146357;0.014648;0.0146604;0.0146727;0.0146851;0.0146974;0.0147098;0.0147221;0.0147345;0.0147468;0.0147592;0.0147715;0.0147839;0.0147962;0.0148086;0.0148209;0.0148333;0.0148456;0.014858;0.0148703;0.0148827;0.014895;0.0149074;0.0149197;0.0149321;0.0149444;0.0149568;0.0149691;0.0149815;0.0149938;0.0150062;0.0150185;0.0150309;0.0150432;0.0150556;0.0150679;0.0150803;0.0150926;0.015105;0.0151173;0.0151297;0.015142;0.0151544;0.0151667;0.0151791;0.0151914;0.0152038;0.0152161;0.0152285;0.0152408;0.0152532;0.0152655;0.0152779;0.0152902;0.0153026;0.0153149;0.0153273;0.0153396;0.015352;0.0153643;0.0153767;0.0153891;0.0154014;0.0154138;0.0154261;0.0154385;0.0154508;0.0154632;0.0154755;0.0154879;0.0155002;0.0155126;0.0155249;0.0155373;0.0155496;0.015562;0.0155743;0.0155867;0.015599;0.0156114;0.0156237;0.0156361;0.0156484;0.0156608;0.0156731;0.0156855;0.0156978;0.0157102;0.0157225;0.0157349;0.0157472;0.0157596;0.0157719;0.0157843;0.0157966;0.015809;0.0158213;0.0158337;0.015846;0.0158584;0.0158707;0.0158831;0.0158954;0.0159078;0.0159201;0.0159325;0.0159448;0.0159572;0.0159695;0.0159819;0.0159942;0.0160066;0.0160189;0.0160313;0.0160436;0.016056;0.0160683;0.0160807;0.016093;0.0161054;0.0161177;0.0161301;0.0161424;0.0161548;0.0161671;0.0161795;0.0161918;0.0162042;0.0162166;0.0162289;0.0162413;0.0162536;0.016266;0.0162783;0.0162907;0.016303;0.0163154;0.0163277;0.0163401;0.0163524;0.0163648;0.0163771;0.0163895;0.0164018;0.0164142;0.0164265;0.0164389;0.0164512;0.0164636;0.0164759;0.0164883;0.0165006;0.016513;0.0165253;0.0165377;0.01655;0.0165624;0.0165747;0.0165871;0.0165994;0.0166118;0.0166241;0.0166365;0.0166488;0.0166612;0.0166735;0.0166859;0.0166982;0.0167106;0.0167229;0.0167353;0.0167476;0.01676;0.0167723;0.0167847;0.016797;0.0168094;0.0168217;0.0168341;0.0168464;0.0168588;0.0168711;0.0168835;0.0168958;0.0169082;0.0169205;0.0169329;0.0169452;0.0169576;0.0169699;0.0169823;0.0169946;0.017007;0.0170194;0.0170317;0.0170441;0.0170564;0.0170688;0.0170811;0.0170935;0.0171058;0.0171182;0.0171305;0.0171429;0.0171552;0.0171676;0.0171799;0.0171923;0.0172046;0.017217;0.0172293;0.0172417;0.017254;0.0172664;0.0172787;0.0172911;0.0173034;0.0173158;0.0173281;0.0173405;0.0173528;0.0173652;0.0173775;0.0173899;0.0174022;0.0174146;0.0174269;0.0174393;0.0174516;0.017464;0.0174763;0.0174887;0.017501;0.0175134;0.0175257;0.0175381;0.0175504;0.0175628;0.0175751;0.0175875;0.0175998;0.0176122;0.0176245;0.0176369;0.0176492;0.0176616;0.0176739;0.0176863;0.0176986;0.017711;0.0177233;0.0177357;0.017748;0.0177604;0.0177727;0.0177851;0.0177974;0.0178098;0.0178222;0.0178345;0.0178469;0.0178592;0.0178716;0.0178839;0.0178963;0.0179086;0.017921;0.0179333;0.0179457;0.017958;0.0179704;0.0179827;0.0179951;0.0180074;0.0180198;0.0180321;0.0180445;0.0180568;0.0180692;0.0180815;0.0180939;0.0181062;0.0181186;0.0181309;0.0181433;0.0181556;0.018168;0.0181803;0.0181927;0.018205;0.0182174;0.0182297;0.0182421;0.0182544;0.0182668;0.0182791;0.0182915;0.0183038;0.0183162;0.0183285;0.0183409;0.0183532;0.0183656;0.0183779;0.0183903;0.0184026;0.018415;0.0184273;0.0184397;0.018452;0.0184644;0.0184767;0.0184891;0.0185014;0.0185138;0.0185261;0.0185385;0.0185508;0.0185632;0.0185755;0.0185879;0.0186002;0.0186126;0.018625;0.0186373;0.0186497;0.018662;0.0186744;0.0186867;0.0186991;0.0187114;0.0187238;0.0187361;0.0187485;0.0187608;0.0187732;0.0187855;0.0187979;0.0188102;0.0188226;0.0188349;0.0188473;0.0188596;0.018872;0.0188843;0.0188967;0.018909;0.0189214;0.0189337;0.0189461;0.0189584;0.0189708;0.0189831;0.0189955;0.0190078;0.0190202;0.0190325;0.0190449;0.0190572;0.0190696;0.0190819;0.0190943;0.0191066;0.019119;0.0191313;0.0191437;0.019156;0.0191684;0.0191807;0.0191931;0.0192054;0.0192178;0.0192301;0.0192425;0.0192548;0.0192672;0.0192795;0.0192919;0.0193042;0.0193166;0.0193289;0.0193413;0.0193536;0.019366;0.0193783;0.0193907;0.019403;0.0194154;0.0194278;0.0194401;0.0194525;0.0194648;0.0194772;0.0194895;0.0195019;0.0195142;0.0195266;0.0195389;0.0195513;0.0195636;0.019576;0.0195883;0.0196007;0.019613;0.0196254;0.0196377;0.0196501;0.0196624;0.0196748;0.0196871;0.0196995;0.0197118;0.0197242;0.0197365;0.0197489;0.0197612;0.0197736;0.0197859;0.0197983;0.0198106;0.019823;0.0198353;0.0198477;0.01986;0.0198724;0.0198847;0.0198971;0.0199094;0.0199218;0.0199341;0.0199465;0.0199588;0.0199712;0.0199835;0.0199959;0.0200082;0.0200206;0.0200329;0.0200453;0.0200576;0.02007;0.0200823;0.0200947;0.020107;0.0201194;0.0201317;0.0201441;0.0201564;0.0201688;0.0201811;0.0201935;0.0202058;0.0202182;0.0202305;0.0202429;0.0202553;0.0202676;0.02028;0.0202923;0.0203047;0.020317;0.0203294;0.0203417;0.0203541;0.0203664;0.0203788;0.0203911;0.0204035;0.0204158;0.0204282;0.0204405;0.0204529;0.0204652;0.0204776;0.0204899;0.0205023;0.0205146;0.020527;0.0205393;0.0205517;0.020564;0.0205764;0.0205887;0.0206011;0.0206134;0.0206258;0.0206381;0.0206505;0.0206628;0.0206752;0.0206875;0.0206999;0.0207122;0.0207246;0.0207369;0.0207493;0.0207616;0.020774;0.0207863;0.0207987;0.020811;0.0208234;0.0208357;0.0208481;0.0208604;0.0208728;0.0208851;0.0208975;0.0209098;0.0209222;0.0209345;0.0209469;0.0209592;0.0209716;0.0209839;0.0209963;0.0210086;0.021021;0.0210333;0.0210457;0.0210581;0.0210704;0.0210828;0.0210951;0.0211075;0.0211198;0.0211322;0.0211445;0.0211569;0.0211692;0.0211816;0.0211939;0.0212063;0.0212186;0.021231;0.0212433;0.0212557;0.021268;0.0212804;0.0212927;0.0213051;0.0213174;0.0213298;0.0213421;0.0213545;0.0213668;0.0213792;0.0213915;0.0214039;0.0214162;0.0214286;0.0214409;0.0214533;0.0214656;0.021478;0.0214903;0.0215027;0.021515;0.0215274;0.0215397;0.0215521;0.0215644;0.0215768;0.0215891;0.0216015;0.0216138;0.0216262;0.0216385;0.0216509;0.0216632;0.0216756;0.0216879;0.0217003;0.0217126;0.021725;0.0217373;0.0217497;0.021762;0.0217744;0.0217867;0.0217991;0.0218114;0.0218238;0.0218361;0.0218485;0.0218608;0.0218732;0.0218856;0.0218979;0.0219103;0.0219226;0.021935;0.0219473;0.0219597;0.021972;0.0219844;0.0219967;0.0220091;0.0220214;0.0220338;0.0220461;0.0220585;0.0220708;0.0220832;0.0220955;0.0221079;0.0221202;0.0221326;0.0221449;0.0221573;0.0221696;0.022182;0.0221943;0.0222067;0.022219;0.0222314;0.0222437;0.0222561;0.0222684;0.0222808;0.0222931;0.0223055;0.0223178;0.0223302;0.0223425;0.0223549;0.0223672;0.0223796;0.0223919;0.0224043;0.0224166;0.022429;0.0224413;0.0224537;0.022466;0.0224784;0.0224907;0.0225031;0.0225154;0.0225278;0.0225401;0.0225525;0.0225648;0.0225772;0.0225895;0.0226019;0.0226142;0.0226266;0.0226389;0.0226513;0.0226636;0.022676;0.0226884;0.0227007;0.0227131;0.0227254;0.0227378;0.0227501;0.0227625;0.0227748;0.0227872;0.0227995;0.0228119;0.0228242;0.0228366;0.0228489;0.0228613;0.0228736;0.022886;0.0228983;0.0229107;0.022923;0.0229354;0.0229477;0.0229601;0.0229724;0.0229848;0.0229971;0.0230095;0.0230218;0.0230342;0.0230465;0.0230589;0.0230712;0.0230836;0.0230959;0.0231083;0.0231206;0.023133;0.0231453;0.0231577;0.02317;0.0231824;0.0231947;0.0232071;0.0232194;0.0232318;0.0232441;0.0232565;0.0232688;0.0232812;0.0232935;0.0233059;0.0233182;0.0233306;0.0233429;0.0233553;0.0233676;0.02338;0.0233923;0.0234047;0.023417;0.0234294;0.0234417;0.0234541;0.0234664;0.0234788;0.0234911;0.0235035;0.0235159;0.0235282;0.0235406;0.0235529;0.0235653;0.0235776;0.02359;0.0236023;0.0236147;0.023627;0.0236394;0.0236517;0.0236641;0.0236764;0.0236888;0.0237011;0.0237135;0.0237258;0.0237382;0.0237505;0.0237629;0.0237752;0.0237876;0.0237999;0.0238123;0.0238246;0.023837;0.0238493;0.0238617;0.023874;0.0238864;0.0238987;0.0239111;0.0239234;0.0239358;0.0239481;0.0239605;0.0239728;0.0239852;0.0239975;0.0240099;0.0240222;0.0240346;0.0240469;0.0240593;0.0240716;0.024084;0.0240963;0.0241087;0.024121;0.0241334;0.0241457;0.0241581;0.0241704;0.0241828;0.0241951;0.0242075;0.0242198;0.0242322;0.0242445;0.0242569;0.0242692;0.0242816;0.0242939;0.0243063;0.0243187;0.024331;0.0243434;0.0243557;0.0243681;0.0243804;0.0243928;0.0244051;0.0244175;0.0244298;0.0244422;0.0244545;0.0244669;0.0244792;0.0244916;0.0245039;0.0245163;0.0245286;0.024541;0.0245533;0.0245657;0.024578;0.0245904;0.0246027;0.0246151;0.0246274;0.0246398;0.0246521;0.0246645;0.0246768;0.0246892;0.0247015;0.0247139;0.0247262;0.0247386;0.0247509;0.0247633;0.0247756;0.024788;0.0248003;0.0248127;0.024825;0.0248374;0.0248497;0.0248621;0.0248744;0.0248868;0.0248991;0.0249115;0.0249238;0.0249362;0.0249485;0.0249609;0.0249732;0.0249856;0.0249979;0.0250103;0.0250226;0.025035;0.0250473;0.0250597;0.025072;0.0250844;0.0250967;0.0251091;0.0251215;0.0251338;0.0251462;0.0251585;0.0251709;0.0251832;0.0251956;0.0252079;0.0252203;0.0252326;0.025245;0.0252573;0.0252697;0.025282;0.0252944;0.0253067;0.0253191;0.0253314;0.0253438;0.0253561;0.0253685;0.0253808;0.0253932;0.0254055;0.0254179;0.0254302;0.0254426;0.0254549;0.0254673;0.0254796;0.025492;0.0255043;0.0255167;0.025529;0.0255414;0.0255537;0.0255661;0.0255784;0.0255908;0.0256031;0.0256155;0.0256278;0.0256402;0.0256525;0.0256649;0.0256772;0.0256896;0.0257019;0.0257143;0.0257266;0.025739;0.0257513;0.0257637;0.025776;0.0257884;0.0258007;0.0258131;0.0258254;0.0258378;0.0258501;0.0258625;0.0258748;0.0258872;0.0258995;0.0259119;0.0259243;0.0259366;0.025949;0.0259613;0.0259737;0.025986;0.0259984;0.0260107;0.0260231;0.0260354;0.0260478;0.0260601;0.0260725;0.0260848;0.0260972;0.0261095;0.0261219;0.0261342;0.0261466;0.0261589;0.0261713;0.0261836;0.026196;0.0262083;0.0262207;0.026233;0.0262454;0.0262577;0.0262701;0.0262824;0.0262948;0.0263071;0.0263195;0.0263318;0.0263442;0.0263565;0.0263689;0.0263812;0.0263936;0.0264059;0.0264183;0.0264306;0.026443;0.0264553;0.0264677;0.02648;0.0264924;0.0265047;0.0265171;0.0265294;0.0265418;0.0265541;0.0265665;0.0265788;0.0265912;0.0266035;0.0266159;0.0266282;0.0266406;0.0266529;0.0266653;0.0266776;0.02669;0.0267023;0.0267147;0.0267271;0.0267394;0.0267518;0.0267641;0.0267765;0.0267888;0.0268012;0.0268135;0.0268259;0.0268382;0.0268506;0.0268629;0.0268753;0.0268876;0.0269;0.0269123;0.0269247;0.026937;0.0269494;0.0269617;0.0269741;0.0269864;0.0269988;0.0270111;0.0270235;0.0270358;0.0270482;0.0270605;0.0270729;0.0270852;0.0270976;0.0271099;0.0271223;0.0271346;0.027147;0.0271593;0.0271717;0.027184;0.0271964;0.0272087;0.0272211;0.0272334;0.0272458;0.0272581;0.0272705;0.0272828;0.0272952;0.0273075;0.0273199;0.0273322;0.0273446;0.0273569;0.0273693;0.0273816;0.027394;0.0274063;0.0274187;0.027431;0.0274434;0.0274557;0.0274681;0.0274804;0.0274928;0.0275051;0.0275175;0.0275298;0.0275422;0.0275546;0.0275669;0.0275793;0.0275916;0.027604;0.0276163;0.0276287;0.027641;0.0276534;0.0276657;0.0276781;0.0276904;0.0277028;0.0277151;0.0277275;0.0277398;0.0277522;0.0277645;0.0277769;0.0277892;0.0278016;0.0278139;0.0278263;0.0278386;0.027851;0.0278633;0.0278757;0.027888;0.0279004;0.0279127;0.0279251;0.0279374;0.0279498;0.0279621;0.0279745;0.0279868;0.0279992;0.0280115;0.0280239;0.0280362;0.0280486;0.0280609;0.0280733;0.0280856;0.028098;0.0281103;0.0281227;0.028135;0.0281474;0.0281597;0.0281721;0.0281844;0.0281968;0.0282091;0.0282215;0.0282338;0.0282462;0.0282585;0.0282709;0.0282832;0.0282956;0.0283079;0.0283203;0.0283326;0.028345;0.0283574;0.0283697;0.0283821;0.0283944;0.0284068;0.0284191;0.0284315;0.0284438;0.0284562;0.0284685;0.0284809;0.0284932;0.0285056;0.0285179;0.0285303;0.0285426;0.028555;0.0285673;0.0285797;0.028592;0.0286044;0.0286167;0.0286291;0.0286414;0.0286538;0.0286661;0.0286785;0.0286908;0.0287032;0.0287155;0.0287279;0.0287402;0.0287526;0.0287649;0.0287773;0.0287896;0.028802;0.0288143;0.0288267;0.028839;0.0288514;0.0288637;0.0288761;0.0288884;0.0289008;0.0289131;0.0289255;0.0289378;0.0289502;0.0289625;0.0289749;0.0289872;0.0289996;0.0290119;0.0290243;0.0290366;0.029049;0.0290613;0.0290737;0.029086;0.0290984;0.0291107;0.0291231;0.0291354;0.0291478;0.0291601;0.0291725;0.0291849;0.0291972;0.0292096;0.0292219;0.0292343;0.0292466;0.029259;0.0292713;0.0292837;0.029296;0.0293084;0.0293207;0.0293331;0.0293454;0.0293578;0.0293701;0.0293825;0.0293948;0.0294072;0.0294195;0.0294319;0.0294442;0.0294566;0.0294689;0.0294813;0.0294936;0.029506;0.0295183;0.0295307;0.029543;0.0295554;0.0295677;0.0295801;0.0295924;0.0296048;0.0296171;0.0296295;0.0296418;0.0296542;0.0296665;0.0296789;0.0296912;0.0297036;0.0297159;0.0297283;0.0297406;0.029753;0.0297653;0.0297777;0.02979;0.0298024;0.0298147;0.0298271;0.0298394;0.0298518;0.0298641;0.0298765;0.0298888;0.0299012;0.0299135;0.0299259;0.0299382;0.0299506;0.0299629;0.0299753;0.0299877;0.03;0.0300124;0.0300247;0.0300371;0.0300494;0.0300618;0.0300741;0.0300865;0.0300988;0.0301112;0.0301235;0.0301359;0.0301482;0.0301606;0.0301729;0.0301853;0.0301976;0.03021;0.0302223;0.0302347;0.030247;0.0302594;0.0302717;0.0302841;0.0302964;0.0303088;0.0303211;0.0303335;0.0303458;0.0303582;0.0303705;0.0303829;0.0303952;0.0304076;0.0304199;0.0304323;0.0304446;0.030457;0.0304693;0.0304817;0.030494;0.0305064;0.0305187;0.0305311;0.0305434;0.0305558;0.0305681;0.0305805;0.0305928;0.0306052;0.0306175;0.0306299;0.0306422;0.0306546;0.0306669;0.0306793;0.0306916;0.030704;0.0307163;0.0307287;0.030741;0.0307534;0.0307657;0.0307781;0.0307905;0.0308028;0.0308152;0.0308275;0.0308399;0.0308522;0.0308646;0.0308769;0.0308893;0.0309016;0.030914;0.0309263;0.0309387;0.030951;0.0309634;0.0309757;0.0309881;0.0310004;0.0310128;0.0310251;0.0310375;0.0310498;0.0310622;0.0310745;0.0310869;0.0310992;0.0311116;0.0311239;0.0311363;0.0311486;0.031161;0.0311733;0.0311857;0.031198;0.0312104;0.0312227;0.0312351;0.0312474;0.0312598;0.0312721;0.0312845;0.0312968;0.0313092;0.0313215;0.0313339;0.0313462;0.0313586;0.0313709;0.0313833;0.0313956;0.031408;0.0314203;0.0314327;0.031445;0.0314574;0.0314697;0.0314821;0.0314944;0.0315068;0.0315191;0.0315315;0.0315438;0.0315562;0.0315685;0.0315809;0.0315933;0.0316056;0.031618;0.0316303;0.0316427;0.031655;0.0316674;0.0316797;0.0316921;0.0317044;0.0317168;0.0317291;0.0317415;0.0317538;0.0317662;0.0317785;0.0317909;0.0318032;0.0318156;0.0318279;0.0318403;0.0318526;0.031865;0.0318773;0.0318897;0.031902;0.0319144;0.0319267;0.0319391;0.0319514;0.0319638;0.0319761;0.0319885;0.0320008;0.0320132;0.0320255;0.0320379;0.0320502;0.0320626;0.0320749;0.0320873;0.0320996;0.032112;0.0321243;0.0321367;0.032149;0.0321614;0.0321737;0.0321861;0.0321984;0.0322108;0.0322231;0.0322355;0.0322478;0.0322602;0.0322725;0.0322849;0.0322972;0.0323096;0.0323219;0.0323343;0.0323466;0.032359;0.0323713;0.0323837;0.032396;0.0324084;0.0324208;0.0324331;0.0324455;0.0324578;0.0324702;0.0324825;0.0324949;0.0325072;0.0325196;0.0325319;0.0325443;0.0325566;0.032569;0.0325813;0.0325937;0.032606;0.0326184;0.0326307;0.0326431;0.0326554;0.0326678;0.0326801;0.0326925;0.0327048;0.0327172;0.0327295;0.0327419;0.0327542;0.0327666;0.0327789;0.0327913;0.0328036;0.032816;0.0328283;0.0328407;0.032853;0.0328654;0.0328777;0.0328901;0.0329024;0.0329148;0.0329271;0.0329395;0.0329518;0.0329642;0.0329765;0.0329889;0.0330012;0.0330136;0.0330259;0.0330383;0.0330506;0.033063;0.0330753;0.0330877;0.0331;0.0331124;0.0331247;0.0331371;0.0331494;0.0331618;0.0331741;0.0331865;0.0331988;0.0332112;0.0332236;0.0332359;0.0332483;0.0332606;0.033273;0.0332853;0.0332977;0.03331;0.0333224;0.0333347;0.0333471;0.0333594;0.0333718;0.0333841;0.0333965;0.0334088;0.0334212;0.0334335;0.0334459;0.0334582;0.0334706;0.0334829;0.0334953;0.0335076;0.03352;0.0335323;0.0335447;0.033557;0.0335694;0.0335817;0.0335941;0.0336064;0.0336188;0.0336311;0.0336435;0.0336558;0.0336682;0.0336805;0.0336929;0.0337052;0.0337176;0.0337299;0.0337423;0.0337546;0.033767;0.0337793;0.0337917;0.033804;0.0338164;0.0338287;0.0338411;0.0338534;0.0338658;0.0338781;0.0338905;0.0339028;0.0339152;0.0339275;0.0339399;0.0339522;0.0339646;0.0339769;0.0339893;0.0340016;0.034014;0.0340264;0.0340387;0.0340511;0.0340634;0.0340758;0.0340881;0.0341005;0.0341128;0.0341252;0.0341375;0.0341499;0.0341622;0.0341746;0.0341869;0.0341993;0.0342116;0.034224;0.0342363;0.0342487;0.034261;0.0342734;0.0342857;0.0342981;0.0343104;0.0343228;0.0343351;0.0343475;0.0343598;0.0343722;0.0343845;0.0343969;0.0344092;0.0344216;0.0344339;0.0344463;0.0344586;0.034471;0.0344833;0.0344957;0.034508;0.0345204;0.0345327;0.0345451;0.0345574;0.0345698;0.0345821;0.0345945;0.0346068;0.0346192;0.0346315;0.0346439;0.0346562;0.0346686;0.0346809;0.0346933;0.0347056;0.034718;0.0347303;0.0347427;0.034755;0.0347674;0.0347797;0.0347921;0.0348044;0.0348168;0.0348292;0.0348415;0.0348539;0.0348662;0.0348786;0.0348909;0.0349033;0.0349156;0.034928;0.0349403;0.0349527;0.034965;0.0349774;0.0349897;0.0350021;0.0350144;0.0350268;0.0350391;0.0350515;0.0350638;0.0350762;0.0350885;0.0351009;0.0351132;0.0351256;0.0351379;0.0351503;0.0351626;0.035175;0.0351873;0.0351997;0.035212;0.0352244;0.0352367;0.0352491;0.0352614;0.0352738;0.0352861;0.0352985;0.0353108;0.0353232;0.0353355;0.0353479;0.0353602;0.0353726;0.0353849;0.0353973;0.0354096;0.035422;0.0354343;0.0354467;0.035459;0.0354714;0.0354837;0.0354961;0.0355084;0.0355208;0.0355331;0.0355455;0.0355578;0.0355702;0.0355825;0.0355949;0.0356072;0.0356196;0.035632;0.0356443;0.0356566;0.035669;0.0356814;0.0356937;0.0357061;0.0357184;0.0357308;0.0357431;0.0357555;0.0357678;0.0357802;0.0357925;0.0358049;0.0358172;0.0358296;0.0358419;0.0358543;0.0358666;0.035879;0.0358913;0.0359037;0.035916;0.0359284;0.0359407;0.0359531;0.0359654;0.0359778;0.0359901;0.0360025;0.0360148;0.0360272;0.0360395;0.0360519;0.0360642;0.0360766;0.0360889;0.0361013;0.0361136;0.036126;0.0361383;0.0361507;0.036163;0.0361754;0.0361877;0.0362001;0.0362124;0.0362248;0.0362371;0.0362495;0.0362618;0.0362742;0.0362865;0.0362989;0.0363112;0.0363236;0.0363359;0.0363483;0.0363606;0.036373;0.0363853;0.0363977;0.03641;0.0364224;0.0364348;0.0364471;0.0364594;0.0364718;0.0364842;0.0364965;0.0365089;0.0365212;0.0365336;0.0365459;0.0365583;0.0365706;0.036583;0.0365953;0.0366077;0.03662;0.0366324;0.0366447;0.0366571;0.0366694;0.0366818;0.0366941;0.0367065;0.0367188;0.0367312;0.0367435;0.0367559;0.0367682;0.0367806;0.0367929;0.0368053;0.0368176;0.03683;0.0368423;0.0368547;0.036867;0.0368794;0.0368917;0.0369041;0.0369164;0.0369288;0.0369411;0.0369535;0.0369658;0.0369782;0.0369905;0.0370029;0.0370152;0.0370276;0.0370399;0.0370523;0.0370646;0.037077;0.0370893;0.0371017;0.037114;0.0371264;0.0371387;0.0371511;0.0371634;0.0371758;0.0371881;0.0372005;0.0372128;0.0372252;0.0372375;0.0372499;0.0372622;0.0372746;0.037287;0.0372993;0.0373117;0.037324;0.0373364;0.0373487;0.0373611;0.0373734;0.0373858;0.0373981;0.0374105;0.0374228;0.0374352;0.0374475;0.0374599;0.0374722;0.0374846;0.0374969;0.0375093;0.0375216;0.037534;0.0375463;0.0375587;0.037571;0.0375834;0.0375957;0.0376081;0.0376204;0.0376328;0.0376451;0.0376575;0.0376698;0.0376822;0.0376945;0.0377069;0.0377192;0.0377316;0.0377439;0.0377563;0.0377686;0.037781;0.0377933;0.0378057;0.037818;0.0378304;0.0378427;0.0378551;0.0378674;0.0378798;0.0378921;0.0379045;0.0379168;0.0379292;0.0379415;0.0379539;0.0379662;0.0379786;0.0379909;0.0380033;0.0380156;0.038028;0.0380403;0.0380527;0.038065;0.0380774;0.0380898;0.0381021;0.0381145;0.0381268;0.0381392;0.0381515;0.0381639;0.0381762;0.0381886;0.0382009;0.0382133;0.0382256;0.038238;0.0382503;0.0382627;0.038275;0.0382874;0.0382997;0.0383121;0.0383244;0.0383368;0.0383491;0.0383615;0.0383738;0.0383862;0.0383985;0.0384109;0.0384232;0.0384356;0.0384479;0.0384603;0.0384726;0.038485;0.0384973;0.0385097;0.038522;0.0385344;0.0385467;0.0385591;0.0385714;0.0385838;0.0385961;0.0386085;0.0386208;0.0386332;0.0386455;0.0386579;0.0386702;0.0386826;0.0386949;0.0387073;0.0387196;0.038732;0.0387443;0.0387567;0.038769;0.0387814;0.0387937;0.0388061;0.0388184;0.0388308;0.0388431;0.0388555;0.0388678;0.0388802;0.0388926;0.0389049;0.0389173;0.0389296;0.038942;0.0389543;0.0389667;0.038979;0.0389914;0.0390037;0.0390161;0.0390284;0.0390408;0.0390531;0.0390655;0.0390778;0.0390902;0.0391025;0.0391149;0.0391272;0.0391396;0.0391519;0.0391643;0.0391766;0.039189;0.0392013;0.0392137;0.039226;0.0392384;0.0392507;0.0392631;0.0392754;0.0392878;0.0393001;0.0393125;0.0393248;0.0393372;0.0393495;0.0393619;0.0393742;0.0393866;0.0393989;0.0394113;0.0394236;0.039436;0.0394483;0.0394607;0.039473;0.0394854;0.0394977;0.0395101;0.0395224;0.0395348;0.0395471;0.0395595;0.0395718;0.0395842;0.0395965;0.0396089;0.0396212;0.0396336;0.0396459;0.0396583;0.0396706;0.039683;0.0396954;0.0397077;0.0397201;0.0397324;0.0397448;0.0397571;0.0397695;0.0397818;0.0397942;0.0398065;0.0398189;0.0398312;0.0398436;0.0398559;0.0398683;0.0398806;0.039893;0.0399053;0.0399177;0.03993;0.0399424;0.0399547;0.0399671;0.0399794;0.0399918;0.0400041;0.0400165;0.0400288;0.0400412;0.0400535;0.0400659;0.0400782;0.0400906;0.0401029;0.0401153;0.0401276;0.04014;0.0401523;0.0401647;0.040177;0.0401894;0.0402017;0.0402141;0.0402264;0.0402388;0.0402511;0.0402635;0.0402758;0.0402882;0.0403005;0.0403129;0.0403252;0.0403376;0.0403499;0.0403623;0.0403746;0.040387;0.0403993;0.0404117;0.040424;0.0404364;0.0404487;0.0404611;0.0404734;0.0404858;0.0404981;0.0405105;0.0405229;0.0405352;0.0405476;0.0405599;0.0405723;0.0405846;0.040597;0.0406093;0.0406217;0.040634;0.0406464;0.0406587;0.0406711;0.0406834;0.0406958;0.0407081;0.0407205;0.0407328;0.0407452;0.0407575;0.0407699;0.0407822;0.0407946;0.0408069;0.0408193;0.0408316;0.040844;0.0408563;0.0408687;0.040881;0.0408934;0.0409057;0.0409181;0.0409304;0.0409428;0.0409551;0.0409675;0.0409798;0.0409922;0.0410045;0.0410169;0.0410292;0.0410416;0.0410539;0.0410663;0.0410786;0.041091;0.0411033;0.0411157;0.041128;0.0411404;0.0411527;0.0411651;0.0411774;0.0411898;0.0412021;0.0412145;0.0412268;0.0412392;0.0412515;0.0412639;0.0412763;0.0412886;0.0413009;0.0413133;0.0413257;0.041338;0.0413504;0.0413627;0.0413751;0.0413874;0.0413998;0.0414121;0.0414245;0.0414368;0.0414492;0.0414615;0.0414739;0.0414862;0.0414986;0.0415109;0.0415233;0.0415356;0.041548;0.0415603;0.0415727;0.041585;0.0415974;0.0416097;0.0416221;0.0416344;0.0416468;0.0416591;0.0416715;0.0416838;0.0416962;0.0417085;0.0417209;0.0417332;0.0417456;0.0417579;0.0417703;0.0417826;0.041795;0.0418073;0.0418197;0.041832;0.0418444;0.0418567;0.0418691;0.0418814;0.0418938;0.0419061;0.0419185;0.0419308;0.0419432;0.0419555;0.0419679;0.0419802;0.0419926;0.0420049;0.0420173;0.0420296;0.042042;0.0420543;0.0420667;0.042079;0.0420914;0.0421037;0.0421161;0.0421285;0.0421408;0.0421532;0.0421655;0.0421779;0.0421902;0.0422026;0.0422149;0.0422273;0.0422396;0.042252;0.0422643;0.0422767;0.042289;0.0423014;0.0423137;0.0423261;0.0423384;0.0423508;0.0423631;0.0423755;0.0423878;0.0424002;0.0424125;0.0424249;0.0424372;0.0424496;0.0424619;0.0424743;0.0424866;0.042499;0.0425113;0.0425237;0.042536;0.0425484;0.0425607;0.0425731;0.0425854;0.0425978;0.0426101;0.0426225;0.0426348;0.0426472;0.0426595;0.0426719;0.0426842;0.0426966;0.0427089;0.0427213;0.0427336;0.042746;0.0427583;0.0427707;0.042783;0.0427954;0.0428077;0.0428201;0.0428324;0.0428448;0.0428571;0.0428695;0.0428818;0.0428942;0.0429065;0.0429189;0.0429313;0.0429436;0.042956;0.0429683;0.0429807;0.042993;0.0430054;0.0430177;0.0430301;0.0430424;0.0430548;0.0430671;0.0430795;0.0430918;0.0431042;0.0431165;0.0431289;0.0431412;0.0431536;0.0431659;0.0431783;0.0431906;0.043203;0.0432153;0.0432277;0.04324;0.0432524;0.0432647;0.0432771;0.0432894;0.0433018;0.0433141;0.0433265;0.0433388;0.0433512;0.0433635;0.0433759;0.0433882;0.0434006;0.0434129;0.0434253;0.0434376;0.04345;0.0434623;0.0434747;0.043487;0.0434994;0.0435117;0.0435241;0.0435364;0.0435488;0.0435611;0.0435735;0.0435858;0.0435982;0.0436105;0.0436229;0.0436352;0.0436476;0.0436599;0.0436723;0.0436846;0.043697;0.0437093;0.0437217;0.0437341;0.0437464;0.0437587;0.0437711;0.0437835;0.0437958;0.0438082;0.0438205;0.0438329;0.0438452;0.0438576;0.0438699;0.0438823;0.0438946;0.043907;0.0439193;0.0439317;0.043944;0.0439564;0.0439687;0.0439811;0.0439934;0.0440058;0.0440181;0.0440305;0.0440428;0.0440552;0.0440675;0.0440799;0.0440922;0.0441046;0.0441169;0.0441293;0.0441416;0.044154;0.0441663;0.0441787;0.044191;0.0442034;0.0442157;0.0442281;0.0442404;0.0442528;0.0442651;0.0442775;0.0442898;0.0443022;0.0443145;0.0443269;0.0443392;0.0443516;0.0443639;0.0443763;0.0443886;0.044401;0.0444133;0.0444257;0.044438;0.0444504;0.0444627;0.0444751;0.0444874;0.0444998;0.0445121;0.0445245;0.0445369;0.0445492;0.0445616;0.0445739;0.0445863;0.0445986;0.044611;0.0446233;0.0446357;0.044648;0.0446604;0.0446727;0.0446851;0.0446974;0.0447098;0.0447221;0.0447345;0.0447468;0.0447592;0.0447715;0.0447839;0.0447962;0.0448086;0.0448209;0.0448333;0.0448456;0.044858;0.0448703;0.0448827;0.044895;0.0449074;0.0449197;0.0449321;0.0449444;0.0449568;0.0449691;0.0449815;0.0449938;0.0450062;0.0450185;0.0450309;0.0450432;0.0450556;0.0450679;0.0450803;0.0450926;0.045105;0.0451173;0.0451297;0.045142;0.0451544;0.0451667;0.0451791;0.0451914;0.0452038;0.0452161;0.0452285;0.0452408;0.0452532;0.0452655;0.0452779;0.0452902;0.0453026;0.0453149;0.0453273;0.0453396;0.045352;0.0453644;0.0453767;0.0453891;0.0454014;0.0454138;0.0454261;0.0454385;0.0454508;0.0454632;0.0454755;0.0454879;0.0455002;0.0455126;0.0455249;0.0455373;0.0455496;0.045562;0.0455743;0.0455867;0.045599;0.0456114;0.0456237;0.0456361;0.0456484;0.0456608;0.0456731;0.0456855;0.0456978;0.0457102;0.0457225;0.0457349;0.0457472;0.0457596;0.0457719;0.0457843;0.0457966;0.045809;0.0458213;0.0458337;0.045846;0.0458584;0.0458707;0.0458831;0.0458954;0.0459078;0.0459201;0.0459325;0.0459448;0.0459572;0.0459695;0.0459819;0.0459942;0.0460066;0.0460189;0.0460313;0.0460436;0.046056;0.0460683;0.0460807;0.046093;0.0461054;0.0461177;0.0461301;0.0461424;0.0461548;0.0461672;0.0461795;0.0461919;0.0462042;0.0462166;0.0462289;0.0462413;0.0462536;0.046266;0.0462783;0.0462907;0.046303;0.0463154;0.0463277;0.0463401;0.0463524;0.0463648;0.0463771;0.0463895;0.0464018;0.0464142;0.0464265;0.0464389;0.0464512;0.0464636;0.0464759;0.0464883;0.0465006;0.046513;0.0465253;0.0465377;0.04655;0.0465624;0.0465747;0.0465871;0.0465994;0.0466118;0.0466241;0.0466365;0.0466488;0.0466612;0.0466735;0.0466859;0.0466982;0.0467106;0.0467229;0.0467353;0.0467476;0.04676;0.0467723;0.0467847;0.046797;0.0468094;0.0468217;0.0468341;0.0468464;0.0468588;0.0468711;0.0468835;0.0468958;0.0469082;0.0469205;0.0469329;0.0469452;0.0469576;0.04697;0.0469823;0.0469947;0.047007;0.0470194;0.0470317;0.0470441;0.0470564;0.0470688;0.0470811;0.0470935;0.0471058;0.0471182;0.0471305;0.0471429;0.0471552;0.0471676;0.0471799;0.0471923;0.0472046;0.047217;0.0472293;0.0472417;0.047254;0.0472664;0.0472787;0.0472911;0.0473034;0.0473158;0.0473281;0.0473405;0.0473528;0.0473652;0.0473775;0.0473899;0.0474022;0.0474146;0.0474269;0.0474393;0.0474516;0.047464;0.0474763;0.0474887;0.047501;0.0475134;0.0475257;0.0475381;0.0475504;0.0475628;0.0475751;0.0475875;0.0475998;0.0476122;0.0476245;0.0476369;0.0476492;0.0476616;0.0476739;0.0476863;0.0476986;0.047711;0.0477233;0.0477357;0.047748;0.0477604;0.0477728;0.0477851;0.0477975;0.0478098;0.0478222;0.0478345;0.0478469;0.0478592;0.0478716;0.0478839;0.0478963;0.0479086;0.047921;0.0479333;0.0479457;0.047958;0.0479704;0.0479827;0.0479951;0.0480074;0.0480198;0.0480321;0.0480445;0.0480568;0.0480692;0.0480815;0.0480939;0.0481062;0.0481186;0.0481309;0.0481433;0.0481556;0.048168;0.0481803;0.0481927;0.048205;0.0482174;0.0482297;0.0482421;0.0482544;0.0482668;0.0482791;0.0482915;0.0483038;0.0483162;0.0483285;0.0483409;0.0483532;0.0483656;0.0483779;0.0483903;0.0484026;0.048415;0.0484273;0.0484397;0.048452;0.0484644;0.0484767;0.0484891;0.0485014;0.0485138;0.0485261;0.0485385;0.0485508;0.0485632;0.0485756;0.0485879;0.0486002;0.0486126;0.048625;0.0486373;0.0486497;0.048662;0.0486744;0.0486867;0.0486991;0.0487114;0.0487238;0.0487361;0.0487485;0.0487608;0.0487732;0.0487855;0.0487979;0.0488102;0.0488226;0.0488349;0.0488473;0.0488596;0.048872;0.0488843;0.0488967;0.048909;0.0489214;0.0489337;0.0489461;0.0489584;0.0489708;0.0489831;0.0489955;0.0490078;0.0490202;0.0490325;0.0490449;0.0490572;0.0490696;0.0490819;0.0490943;0.0491066;0.049119;0.0491313;0.0491437;0.049156;0.0491684;0.0491807;0.0491931;0.0492054;0.0492178;0.0492301;0.0492425;0.0492548;0.0492672;0.0492795;0.0492919;0.0493042;0.0493166;0.0493289;0.0493413;0.0493536;0.049366;0.0493784;0.0493907;0.049403;0.0494154;0.0494278;0.0494401;0.0494525;0.0494648;0.0494772;0.0494895;0.0495019;0.0495142;0.0495266;0.0495389;0.0495513;0.0495636;0.049576;0.0495883;0.0496007;0.049613;0.0496254;0.0496377;0.0496501;0.0496624;0.0496748;0.0496871;0.0496995;0.0497118;0.0497242;0.0497365;0.0497489;0.0497612;0.0497736;0.0497859;0.0497983;0.0498106;0.049823;0.0498353;0.0498477;0.04986;0.0498724;0.0498847;0.0498971;0.0499094;0.0499218;0.0499341;0.0499465;0.0499588;0.0499712;0.0499835;0.0499959;0.0500082;0.0500206;0.0500329;0.0500453;0.0500576;0.05007;0.0500823;0.0500947;0.050107;0.0501194;0.0501317;0.0501441;0.0501564;0.0501688;0.0501811;0.0501935;0.0502058;0.0502182;0.0502306;0.0502429;0.0502553;0.0502676;0.05028;0.0502923;0.0503047;0.050317;0.0503294;0.0503417;0.0503541;0.0503664;0.0503788;0.0503911;0.0504035;0.0504158;0.0504282;0.0504405;0.0504529;0.0504652;0.0504776;0.0504899;0.0505023;0.0505146;0.050527;0.0505393;0.0505517;0.050564;0.0505764;0.0505887;0.0506011;0.0506134;0.0506258;0.0506381;0.0506505;0.0506628;0.0506752;0.0506875;0.0506999;0.0507122;0.0507246;0.0507369;0.0507493;0.0507616;0.050774;0.0507863;0.0507987;0.050811;0.0508234;0.0508357;0.0508481;0.0508604;0.0508728;0.0508851;0.0508975;0.0509098;0.0509222;0.0509345;0.0509469;0.0509592;0.0509716;0.0509839;0.0509963;0.0510086;0.051021;0.0510334;0.0510457;0.0510581;0.0510704;0.0510828;0.0510951;0.0511075;0.0511198;0.0511322;0.0511445;0.0511569;0.0511692;0.0511816;0.0511939;0.0512063;0.0512186;0.051231;0.0512433;0.0512557;0.051268;0.0512804;0.0512927;0.0513051;0.0513174;0.0513298;0.0513421;0.0513545;0.0513668;0.0513792;0.0513915;0.0514039;0.0514162;0.0514286;0.0514409;0.0514533;0.0514656;0.051478;0.0514903;0.0515027;0.051515;0.0515274;0.0515397;0.0515521;0.0515644;0.0515768;0.0515891;0.0516015;0.0516138;0.0516262;0.0516385;0.0516509;0.0516632;0.0516756;0.0516879;0.0517003;0.0517126;0.051725;0.0517373;0.0517497;0.051762;0.0517744;0.0517867;0.0517991;0.0518114;0.0518238;0.0518362;0.0518485;0.0518609;0.0518732;0.0518856;0.0518979;0.0519103;0.0519226;0.051935;0.0519473;0.0519597;0.051972;0.0519844;0.0519967;0.0520091;0.0520214;0.0520338;0.0520461;0.0520585;0.0520708;0.0520832;0.0520955;0.0521079;0.0521202;0.0521326;0.0521449;0.0521573;0.0521696;0.052182;0.0521943;0.0522067;0.052219;0.0522314;0.0522437;0.0522561;0.0522684;0.0522808;0.0522931;0.0523055;0.0523178;0.0523302;0.0523425;0.0523549;0.0523672;0.0523796;0.0523919;0.0524043;0.0524166;0.052429;0.0524413;0.0524537;0.052466;0.0524784;0.0524907;0.0525031;0.0525154;0.0525278;0.0525401;0.0525525;0.0525648;0.0525772;0.0525895;0.0526019;0.0526142;0.0526266;0.052639;0.0526513;0.0526637;0.052676;0.0526884;0.0527007;0.0527131;0.0527254;0.0527378;0.0527501;0.0527625;0.0527748;0.0527872;0.0527995;0.0528119;0.0528242;0.0528366;0.0528489;0.0528613;0.0528736;0.052886;0.0528983;0.0529107;0.052923;0.0529354;0.0529477;0.0529601;0.0529724;0.0529848;0.0529971;0.0530095;0.0530218;0.0530342;0.0530465;0.0530589;0.0530712;0.0530836;0.0530959;0.0531083;0.0531206;0.053133;0.0531453;0.0531577;0.05317;0.0531824;0.0531947;0.0532071;0.0532194;0.0532318;0.0532441;0.0532565;0.0532688;0.0532812;0.0532935;0.0533059;0.0533182;0.0533306;0.0533429;0.0533553;0.0533676;0.05338;0.0533923;0.0534047;0.053417;0.0534294;0.0534417;0.0534541;0.0534665;0.0534788;0.0534912;0.0535035;0.0535159;0.0535282;0.0535406;0.0535529;0.0535653;0.0535776;0.05359;0.0536023;0.0536147;0.053627;0.0536394;0.0536517;0.0536641;0.0536764;0.0536888;0.0537011;0.0537135;0.0537258;0.0537382;0.0537505;0.0537629;0.0537752;0.0537876;0.0537999;0.0538123;0.0538246;0.053837;0.0538493;0.0538617;0.053874;0.0538864;0.0538987;0.0539111;0.0539234;0.0539358;0.0539481;0.0539605;0.0539728;0.0539852;0.0539975;0.0540099;0.0540222;0.0540346;0.0540469;0.0540593;0.0540716;0.054084;0.0540963;0.0541087;0.054121;0.0541334;0.0541457;0.0541581;0.0541704;0.0541828;0.0541951;0.0542075;0.0542198;0.0542322;0.0542445;0.0542569;0.0542693;0.0542816;0.054294;0.0543063;0.0543187;0.054331;0.0543434;0.0543557;0.0543681;0.0543804;0.0543928;0.0544051;0.0544175;0.0544298;0.0544422;0.0544545;0.0544669;0.0544792;0.0544916;0.0545039;0.0545163;0.0545286;0.054541;0.0545533;0.0545657;0.054578;0.0545904;0.0546027;0.0546151;0.0546274;0.0546398;0.0546521;0.0546645;0.0546768;0.0546892;0.0547015;0.0547139;0.0547262;0.0547386;0.0547509;0.0547633;0.0547756;0.054788;0.0548003;0.0548127;0.054825;0.0548374;0.0548497;0.0548621;0.0548744;0.0548868;0.0548991;0.0549115;0.0549238;0.0549362;0.0549485;0.0549609;0.0549732;0.0549856;0.0549979;0.0550103;0.0550226;0.055035;0.0550473;0.0550597;0.0550721;0.0550844;0.0550968;0.0551091;0.0551215;0.0551338;0.0551462;0.0551585;0.0551709;0.0551832;0.0551956;0.0552079;0.0552203;0.0552326;0.055245;0.0552573;0.0552697;0.055282;0.0552944;0.0553067;0.0553191;0.0553314;0.0553438;0.0553561;0.0553685;0.0553808;0.0553932;0.0554055;0.0554179;0.0554302;0.0554426;0.0554549;0.0554673;0.0554796;0.055492;0.0555043;0.0555167;0.055529;0.0555414;0.0555537;0.0555661;0.0555784;0.0555908;0.0556031;0.0556155;0.0556278;0.0556402;0.0556525;0.0556649;0.0556772;0.0556896;0.0557019;0.0557143;0.0557266;0.055739;0.0557513;0.0557637;0.055776;0.0557884;0.0558007;0.0558131;0.0558254;0.0558378;0.0558501;0.0558625;0.0558749;0.0558872;0.0558996;0.0559119;0.0559243;0.0559366;0.055949;0.0559613;0.0559737;0.055986;0.0559984;0.0560107;0.0560231;0.0560354;0.0560478;0.0560601;0.0560725;0.0560848;0.0560972;0.0561095;0.0561219;0.0561342;0.0561466;0.0561589;0.0561713;0.0561836;0.056196;0.0562083;0.0562207;0.056233;0.0562454;0.0562577;0.0562701;0.0562824;0.0562948;0.0563071;0.0563195;0.0563318;0.0563442;0.0563565;0.0563689;0.0563812;0.0563936;0.0564059;0.0564183;0.0564306;0.056443;0.0564553;0.0564677;0.05648;0.0564924;0.0565047;0.0565171;0.0565294;0.0565418;0.0565541;0.0565665;0.0565788;0.0565912;0.0566035;0.0566159;0.0566282;0.0566406;0.0566529;0.0566653;0.0566777;0.05669;0.0567023;0.0567147;0.0567271;0.0567394;0.0567518;0.0567641;0.0567765;0.0567888;0.0568012;0.0568135;0.0568259;0.0568382;0.0568506;0.0568629;0.0568753;0.0568876;0.0569;0.0569123;0.0569247;0.056937;0.0569494;0.0569617;0.0569741;0.0569864;0.0569988;0.0570111;0.0570235;0.0570358;0.0570482;0.0570605;0.0570729;0.0570852;0.0570976;0.0571099;0.0571223;0.0571346;0.057147;0.0571593;0.0571717;0.057184;0.0571964;0.0572087;0.0572211;0.0572334;0.0572458;0.0572581;0.0572705;0.0572828;0.0572952;0.0573075;0.0573199;0.0573322;0.0573446;0.0573569;0.0573693;0.0573816;0.057394;0.0574063;0.0574187;0.057431;0.0574434;0.0574557;0.0574681;0.0574804;0.0574928;0.0575051;0.0575175;0.0575299;0.0575422;0.0575546;0.0575669;0.0575793;0.0575916;0.057604;0.0576163;0.0576287;0.057641;0.0576534;0.0576657;0.0576781;0.0576904;0.0577028;0.0577151;0.0577275;0.0577398;0.0577522;0.0577645;0.0577769;0.0577892;0.0578016;0.0578139;0.0578263;0.0578386;0.057851;0.0578633;0.0578757;0.057888;0.0579004;0.0579127;0.0579251;0.0579374;0.0579498;0.0579621;0.0579745;0.0579868;0.0579992;0.0580115;0.0580239;0.0580362;0.0580486;0.0580609;0.0580733;0.0580856;0.058098;0.0581103;0.0581227;0.058135;0.0581474;0.0581597;0.0581721;0.0581844;0.0581968;0.0582091;0.0582215;0.0582338;0.0582462;0.0582585;0.0582709;0.0582832;0.0582956;0.0583079;0.0583203;0.0583327;0.058345;0.0583574;0.0583697;0.0583821;0.0583944;0.0584068;0.0584191;0.0584315;0.0584438;0.0584562;0.0584685;0.0584809;0.0584932;0.0585056;0.0585179;0.0585303;0.0585426;0.058555;0.0585673;0.0585797;0.058592;0.0586044;0.0586167;0.0586291;0.0586414;0.0586538;0.0586661;0.0586785;0.0586908;0.0587032;0.0587155;0.0587279;0.0587402;0.0587526;0.0587649;0.0587773;0.0587896;0.058802;0.0588143;0.0588267;0.058839;0.0588514;0.0588637;0.0588761;0.0588884;0.0589008;0.0589131;0.0589255;0.0589378;0.0589502;0.0589625;0.0589749;0.0589872;0.0589996;0.0590119;0.0590243;0.0590366;0.059049;0.0590613;0.0590737;0.059086;0.0590984;0.0591107;0.0591231;0.0591355;0.0591478;0.0591602;0.0591725;0.0591849;0.0591972;0.0592096;0.0592219;0.0592343;0.0592466;0.059259;0.0592713;0.0592837;0.059296;0.0593084;0.0593207;0.0593331;0.0593454;0.0593578;0.0593701;0.0593825;0.0593948;0.0594072;0.0594195;0.0594319;0.0594442;0.0594566;0.0594689;0.0594813;0.0594936;0.059506;0.0595183;0.0595307;0.059543;0.0595554;0.0595677;0.0595801;0.0595924;0.0596048;0.0596171;0.0596295;0.0596418;0.0596542;0.0596665;0.0596789;0.0596912;0.0597036;0.0597159;0.0597283;0.0597406;0.059753;0.0597653;0.0597777;0.05979;0.0598024;0.0598147;0.0598271;0.0598394;0.0598518;0.0598641;0.0598765;0.0598888;0.0599012;0.0599135;0.0599259;0.0599383;0.0599506;0.059963;0.0599753;0.0599877;0.06;0.0600124;0.0600247;0.0600371;0.0600494;0.0600618;0.0600741;0.0600865;0.0600988;0.0601112;0.0601235;0.0601359;0.0601482;0.0601606;0.0601729;0.0601853;0.0601976;0.06021;0.0602223;0.0602347;0.060247;0.0602594;0.0602717;0.0602841;0.0602964;0.0603088;0.0603211;0.0603335;0.0603458;0.0603582;0.0603705;0.0603829;0.0603952;0.0604076;0.0604199;0.0604323;0.0604446;0.060457;0.0604693;0.0604817;0.060494;0.0605064;0.0605187;0.0605311;0.0605434;0.0605558;0.0605681;0.0605805;0.0605928;0.0606052;0.0606175;0.0606299;0.0606422;0.0606546;0.0606669;0.0606793;0.0606916;0.060704;0.0607163;0.0607287;0.060741;0.0607534;0.0607658;0.0607781;0.0607905;0.0608028;0.0608152;0.0608275;0.0608399;0.0608522;0.0608646;0.0608769;0.0608893;0.0609016;0.060914;0.0609263;0.0609387;0.060951;0.0609634;0.0609757;0.0609881;0.0610004;0.0610128;0.0610251;0.0610375;0.0610498;0.0610622;0.0610745;0.0610869;0.0610992;0.0611116;0.0611239;0.0611363;0.0611486;0.061161;0.0611733;0.0611857;0.061198;0.0612104;0.0612227;0.0612351;0.0612474;0.0612598;0.0612721;0.0612845;0.0612968;0.0613092;0.0613215;0.0613339;0.0613462;0.0613586;0.0613709;0.0613833;0.0613956;0.061408;0.0614203;0.0614327;0.061445;0.0614574;0.0614697;0.0614821;0.0614944;0.0615068;0.0615191;0.0615315;0.0615438;0.0615562;0.0615686;0.0615809;0.0615933;0.0616056;0.061618;0.0616303;0.0616427;0.061655;0.0616674;0.0616797;0.0616921;0.0617044;0.0617168;0.0617291;0.0617415;0.0617538;0.0617662;0.0617785;0.0617909;0.0618032;0.0618156;0.0618279;0.0618403;0.0618526;0.061865;0.0618773;0.0618897;0.061902;0.0619144;0.0619267;0.0619391;0.0619514;0.0619638;0.0619761;0.0619885;0.0620008;0.0620132;0.0620255;0.0620379;0.0620502;0.0620626;0.0620749;0.0620873;0.0620996;0.062112;0.0621243;0.0621367;0.062149;0.0621614;0.0621737;0.0621861;0.0621984;0.0622108;0.0622231;0.0622355;0.0622478;0.0622602;0.0622725;0.0622849;0.0622972;0.0623096;0.0623219;0.0623343;0.0623466;0.062359;0.0623714;0.0623837;0.0623961;0.0624084;0.0624208;0.0624331;0.0624455;0.0624578;0.0624702;0.0624825;0.0624949;0.0625072;0.0625196;0.0625319;0.0625443;0.0625566;0.062569;0.0625813;0.0625937;0.062606;0.0626184;0.0626307;0.0626431;0.0626554;0.0626678;0.0626801;0.0626925;0.0627048;0.0627172;0.0627295;0.0627419;0.0627542;0.0627666;0.0627789;0.0627913;0.0628036;0.062816;0.0628283;0.0628407;0.062853;0.0628654;0.0628777;0.0628901;0.0629024;0.0629148;0.0629271;0.0629395;0.0629518;0.0629642;0.0629765;0.0629889;0.0630012;0.0630136;0.0630259;0.0630383;0.0630506;0.063063;0.0630753;0.0630877;0.0631;0.0631124;0.0631247;0.0631371;0.0631495;0.0631618;0.0631742;0.0631865;0.0631988;0.0632112;0.0632236;0.0632359;0.0632483;0.0632606;0.063273;0.0632853;0.0632977;0.06331;0.0633224;0.0633347;0.0633471;0.0633594;0.0633718;0.0633841;0.0633965;0.0634088;0.0634212;0.0634335;0.0634459;0.0634582;0.0634706;0.0634829;0.0634953;0.0635076;0.06352;0.0635323;0.0635447;0.063557;0.0635694;0.0635817;0.0635941;0.0636064;0.0636188;0.0636311;0.0636435;0.0636558;0.0636682;0.0636805;0.0636929;0.0637052;0.0637176;0.0637299;0.0637423;0.0637546;0.063767;0.0637793;0.0637917;0.063804;0.0638164;0.0638287;0.0638411;0.0638534;0.0638658;0.0638781;0.0638905;0.0639028;0.0639152;0.0639275;0.0639399;0.0639522;0.0639646;0.063977;0.0639893;0.0640016;0.064014;0.0640264;0.0640387;0.0640511;0.0640634;0.0640758;0.0640881;0.0641005;0.0641128;0.0641252;0.0641375;0.0641499;0.0641622;0.0641746;0.0641869;0.0641993;0.0642116;0.064224;0.0642363;0.0642487;0.064261;0.0642734;0.0642857;0.0642981;0.0643104;0.0643228;0.0643351;0.0643475;0.0643598;0.0643722;0.0643845;0.0643969;0.0644092;0.0644216;0.0644339;0.0644463;0.0644586;0.064471;0.0644833;0.0644957;0.064508;0.0645204;0.0645327;0.0645451;0.0645574;0.0645698;0.0645821;0.0645945;0.0646068;0.0646192;0.0646315;0.0646439;0.0646562;0.0646686;0.0646809;0.0646933;0.0647056;0.064718;0.0647303;0.0647427;0.064755;0.0647674;0.0647798;0.0647921;0.0648044;0.0648168;0.0648292;0.0648415;0.0648539;0.0648662;0.0648786;0.0648909;0.0649033;0.0649156;0.064928;0.0649403;0.0649527;0.064965;0.0649774;0.0649897;0.0650021;0.0650144;0.0650268;0.0650391;0.0650515;0.0650638;0.0650762;0.0650885;0.0651009;0.0651132;0.0651256;0.0651379;0.0651503;0.0651626;0.065175;0.0651873;0.0651997;0.065212;0.0652244;0.0652367;0.0652491;0.0652614;0.0652738;0.0652861;0.0652985;0.0653108;0.0653232;0.0653355;0.0653479;0.0653602;0.0653726;0.0653849;0.0653973;0.0654096;0.065422;0.0654343;0.0654467;0.065459;0.0654714;0.0654837;0.0654961;0.0655084;0.0655208;0.0655331;0.0655455;0.0655578;0.0655702;0.0655826;0.0655949;0.0656072;0.0656196;0.0656319;0.0656443;0.0656567;0.065669;0.0656814;0.0656937;0.0657061;0.0657184;0.0657308;0.0657431;0.0657555;0.0657678;0.0657802;0.0657925;0.0658049;0.0658172;0.0658296;0.0658419;0.0658543;0.0658666;0.065879;0.0658913;0.0659037;0.065916;0.0659284;0.0659407;0.0659531;0.0659654;0.0659778;0.0659901;0.0660025;0.0660148;0.0660272;0.0660395;0.0660519;0.0660642;0.0660766;0.0660889;0.0661013;0.0661136;0.066126;0.0661383;0.0661507;0.066163;0.0661754;0.0661877;0.0662001;0.0662124;0.0662248;0.0662371;0.0662495;0.0662618;0.0662742;0.0662865;0.0662989;0.0663112;0.0663236;0.0663359;0.0663483;0.0663606;0.066373;0.0663854;0.0663977;0.06641;0.0664224;0.0664347;0.0664471;0.0664595;0.0664718;0.0664842;0.0664965;0.0665089;0.0665212;0.0665336;0.0665459;0.0665583;0.0665706;0.066583;0.0665953;0.0666077;0.06662;0.0666324;0.0666447;0.0666571;0.0666694;0.0666818;0.0666941;0.0667065;0.0667188;0.0667312;0.0667435;0.0667559;0.0667682;0.0667806;0.0667929;0.0668053;0.0668176;0.06683;0.0668423;0.0668547;0.066867;0.0668794;0.0668917;0.0669041;0.0669164;0.0669288;0.0669411;0.0669535;0.0669658;0.0669782;0.0669905;0.0670029;0.0670152;0.0670276;0.0670399;0.0670523;0.0670646;0.067077;0.0670893;0.0671017;0.067114;0.0671264;0.0671387;0.0671511;0.0671634;0.0671758;0.0671882;0.0672005;0.0672128;0.0672252;0.0672375;0.0672499;0.0672623;0.0672746;0.067287;0.0672993;0.0673117;0.067324;0.0673364;0.0673487;0.0673611;0.0673734;0.0673858;0.0673981;0.0674105;0.0674228;0.0674352;0.0674475;0.0674599;0.0674722;0.0674846;0.0674969;0.0675093;0.0675216;0.067534;0.0675463;0.0675587;0.067571;0.0675834;0.0675957;0.0676081;0.0676204;0.0676328;0.0676451;0.0676575;0.0676698;0.0676822;0.0676945;0.0677069;0.0677192;0.0677316;0.0677439;0.0677563;0.0677686;0.067781;0.0677933;0.0678057;0.067818;0.0678304;0.0678427;0.0678551;0.0678674;0.0678798;0.0678921;0.0679045;0.0679168;0.0679292;0.0679415;0.0679539;0.0679662;0.0679786;0.067991;0.0680033;0.0680156;0.068028;0.0680403;0.0680527;0.0680651;0.0680774;0.0680898;0.0681021;0.0681145;0.0681268;0.0681392;0.0681515;0.0681639;0.0681762;0.0681886;0.0682009;0.0682133;0.0682256;0.068238;0.0682503;0.0682627;0.068275;0.0682874;0.0682997;0.0683121;0.0683244;0.0683368;0.0683491;0.0683615;0.0683738;0.0683862;0.0683985;0.0684109;0.0684232;0.0684356;0.0684479;0.0684603;0.0684726;0.068485;0.0684973;0.0685097;0.068522;0.0685344;0.0685467;0.0685591;0.0685714;0.0685838;0.0685961;0.0686085;0.0686208;0.0686332;0.0686455;0.0686579;0.0686702;0.0686826;0.0686949;0.0687073;0.0687196;0.068732;0.0687443;0.0687567;0.068769;0.0687814;0.0687937;0.0688061;0.0688184;0.0688308;0.0688431;0.0688555;0.0688679;0.0688802;0.0688926;0.0689049;0.0689173;0.0689296;0.068942;0.0689543;0.0689667;0.068979;0.0689914;0.0690037;0.0690161;0.0690284;0.0690408;0.0690531;0.0690655;0.0690778;0.0690902;0.0691025;0.0691149;0.0691272;0.0691396;0.0691519;0.0691643;0.0691766;0.069189;0.0692013;0.0692137;0.069226;0.0692384;0.0692507;0.0692631;0.0692754;0.0692878;0.0693001;0.0693125;0.0693248;0.0693372;0.0693495;0.0693619;0.0693742;0.0693866;0.0693989;0.0694113;0.0694236;0.069436;0.0694483;0.0694607;0.069473;0.0694854;0.0694977;0.0695101;0.0695224;0.0695348;0.0695471;0.0695595;0.0695718;0.0695842;0.0695965;0.0696089;0.0696213;0.0696336;0.0696459;0.0696583;0.0696707;0.069683;0.0696954;0.0697077;0.0697201;0.0697324;0.0697448;0.0697571;0.0697695;0.0697818;0.0697942;0.0698065;0.0698189;0.0698312;0.0698436;0.0698559;0.0698683;0.0698806;0.069893;0.0699053;0.0699177;0.06993;0.0699424;0.0699547;0.0699671;0.0699794;0.0699918;0.0700041;0.0700165;0.0700288;0.0700412;0.0700535;0.0700659;0.0700782;0.0700906;0.0701029;0.0701153;0.0701276;0.07014;0.0701523;0.0701647;0.070177;0.0701894;0.0702017;0.0702141;0.0702264;0.0702388;0.0702511;0.0702635;0.0702758;0.0702882;0.0703005;0.0703129;0.0703252;0.0703376;0.0703499;0.0703623;0.0703746;0.070387;0.0703993;0.0704117;0.0704241;0.0704364;0.0704487;0.0704611;0.0704734;0.0704858;0.0704982;0.0705105;0.0705229;0.0705352;0.0705476;0.0705599;0.0705723;0.0705846;0.070597;0.0706093;0.0706217;0.070634;0.0706464;0.0706587;0.0706711;0.0706834;0.0706958;0.0707081;0.0707205;0.0707328;0.0707452;0.0707575;0.0707699;0.0707822;0.0707946;0.0708069;0.0708193;0.0708316;0.070844;0.0708563;0.0708687;0.070881;0.0708934;0.0709057;0.0709181;0.0709304;0.0709428;0.0709551;0.0709675;0.0709798;0.0709922;0.0710045;0.0710169;0.0710292;0.0710416;0.0710539;0.0710663;0.0710786;0.071091;0.0711033;0.0711157;0.071128;0.0711404;0.0711527;0.0711651;0.0711774;0.0711898;0.0712021;0.0712145;0.0712269;0.0712392;0.0712515;0.0712639;0.0712762;0.0712886;0.071301;0.0713133;0.0713257;0.071338;0.0713504;0.0713627;0.0713751;0.0713874;0.0713998;0.0714121;0.0714245;0.0714368;0.0714492;0.0714615;0.0714739;0.0714862;0.0714986;0.0715109;0.0715233;0.0715356;0.071548;0.0715603;0.0715727;0.071585;0.0715974;0.0716097;0.0716221;0.0716344;0.0716468;0.0716591;0.0716715;0.0716838;0.0716962;0.0717085;0.0717209;0.0717332;0.0717456;0.0717579;0.0717703;0.0717826;0.071795;0.0718073;0.0718197;0.071832;0.0718444;0.0718567;0.0718691;0.0718814;0.0718938;0.0719061;0.0719185;0.0719308;0.0719432;0.0719555;0.0719679;0.0719802;0.0719926;0.0720049;0.0720173;0.0720297;0.072042;0.0720543;0.0720667;0.072079;0.0720914;0.0721038;0.0721161;0.0721285;0.0721408;0.0721532;0.0721655;0.0721779;0.0721902;0.0722026;0.0722149;0.0722273;0.0722396;0.072252;0.0722643;0.0722767;0.072289;0.0723014;0.0723137;0.0723261;0.0723384;0.0723508;0.0723631;0.0723755;0.0723878;0.0724002;0.0724125;0.0724249;0.0724372;0.0724496;0.0724619;0.0724743;0.0724866;0.072499;0.0725113;0.0725237;0.072536;0.0725484;0.0725607;0.0725731;0.0725854;0.0725978;0.0726101;0.0726225;0.0726348;0.0726472;0.0726595;0.0726719;0.0726842;0.0726966;0.0727089;0.0727213;0.0727336;0.072746;0.0727583;0.0727707;0.072783;0.0727954;0.0728077;0.0728201;0.0728325;0.0728448;0.0728571;0.0728695;0.0728818;0.0728942;0.0729066;0.0729189;0.0729313;0.0729436;0.072956;0.0729683;0.0729807;0.072993;0.0730054;0.0730177;0.0730301;0.0730424;0.0730548;0.0730671;0.0730795;0.0730918;0.0731042;0.0731165;0.0731289;0.0731412;0.0731536;0.0731659;0.0731783;0.0731906;0.073203;0.0732153;0.0732277;0.07324;0.0732524;0.0732647;0.0732771;0.0732894;0.0733018;0.0733141;0.0733265;0.0733388;0.0733512;0.0733635;0.0733759;0.0733882;0.0734006;0.0734129;0.0734253;0.0734376;0.07345;0.0734623;0.0734747;0.073487;0.0734994;0.0735117;0.0735241;0.0735364;0.0735488;0.0735611;0.0735735;0.0735858;0.0735982;0.0736105;0.0736229;0.0736352;0.0736476;0.0736599;0.0736723;0.0736846;0.073697;0.0737094;0.0737217;0.0737341;0.0737464;0.0737588;0.0737711;0.0737835;0.0737958;0.0738082;0.0738205;0.0738329;0.0738452;0.0738576;0.0738699;0.0738823;0.0738946;0.073907;0.0739193;0.0739317;0.073944;0.0739564;0.0739687;0.0739811;0.0739934;0.0740058;0.0740181;0.0740305;0.0740428;0.0740552;0.0740675;0.0740799;0.0740922;0.0741046;0.0741169;0.0741293;0.0741416;0.074154;0.0741663;0.0741787;0.074191;0.0742034;0.0742157;0.0742281;0.0742404;0.0742528;0.0742651;0.0742775;0.0742898;0.0743022;0.0743145;0.0743269;0.0743392;0.0743516;0.0743639;0.0743763;0.0743886;0.074401;0.0744133;0.0744257;0.074438;0.0744504;0.0744627;0.0744751;0.0744874;0.0744998;0.0745122;0.0745245;0.0745369;0.0745492;0.0745616;0.0745739;0.0745863;0.0745986;0.074611;0.0746233;0.0746357;0.074648;0.0746604;0.0746727;0.0746851;0.0746974;0.0747098;0.0747221;0.0747345;0.0747468;0.0747592;0.0747715;0.0747839;0.0747962;0.0748086;0.0748209;0.0748333;0.0748456;0.074858;0.0748703;0.0748827;0.074895;0.0749074;0.0749197;0.0749321;0.0749444;0.0749568;0.0749691;0.0749815;0.0749938;0.0750062;0.0750185;0.0750309;0.0750432;0.0750556;0.0750679;0.0750803;0.0750926;0.075105;0.0751173;0.0751297;0.075142;0.0751544;0.0751667;0.0751791;0.0751914;0.0752038;0.0752161;0.0752285;0.0752408;0.0752532;0.0752655;0.0752779;0.0752902;0.0753026;0.0753149;0.0753273;0.0753397;0.075352;0.0753644;0.0753767;0.0753891;0.0754014;0.0754138;0.0754261;0.0754385;0.0754508;0.0754632;0.0754755;0.0754879;0.0755002;0.0755126;0.0755249;0.0755373;0.0755496;0.075562;0.0755743;0.0755867;0.075599;0.0756114;0.0756237;0.0756361;0.0756484;0.0756608;0.0756731;0.0756855;0.0756978;0.0757102;0.0757225;0.0757349;0.0757472;0.0757596;0.0757719;0.0757843;0.0757966;0.075809;0.0758213;0.0758337;0.075846;0.0758584;0.0758707;0.0758831;0.0758954;0.0759078;0.0759201;0.0759325;0.0759448;0.0759572;0.0759695;0.0759819;0.0759942;0.0760066;0.0760189;0.0760313;0.0760436;0.076056;0.0760683;0.0760807;0.076093;0.0761054;0.0761177;0.0761301;0.0761425;0.0761548;0.0761672;0.0761795;0.0761919;0.0762042;0.0762166;0.0762289;0.0762413;0.0762536;0.076266;0.0762783;0.0762907;0.076303;0.0763154;0.0763277;0.0763401;0.0763524;0.0763648;0.0763771;0.0763895;0.0764018;0.0764142;0.0764265;0.0764389;0.0764512;0.0764636;0.0764759;0.0764883;0.0765006;0.076513;0.0765253;0.0765377;0.07655;0.0765624;0.0765747;0.0765871;0.0765994;0.0766118;0.0766241;0.0766365;0.0766488;0.0766612;0.0766735;0.0766859;0.0766982;0.0767106;0.0767229;0.0767353;0.0767476;0.07676;0.0767723;0.0767847;0.076797;0.0768094;0.0768217;0.0768341;0.0768464;0.0768588;0.0768711;0.0768835;0.0768958;0.0769082;0.0769205;0.0769329;0.0769453;0.0769576;0.07697;0.0769823;0.0769947;0.077007;0.0770194;0.0770317;0.0770441;0.0770564;0.0770688;0.0770811;0.0770935;0.0771058;0.0771182;0.0771305;0.0771429;0.0771552;0.0771676;0.0771799;0.0771923;0.0772046;0.077217;0.0772293;0.0772417;0.077254;0.0772664;0.0772787;0.0772911;0.0773034;0.0773158;0.0773281;0.0773405;0.0773528;0.0773652;0.0773775;0.0773899;0.0774022;0.0774146;0.0774269;0.0774393;0.0774516;0.077464;0.0774763;0.0774887;0.077501;0.0775134;0.0775257;0.0775381;0.0775504;0.0775628;0.0775751;0.0775875;0.0775998;0.0776122;0.0776245;0.0776369;0.0776492;0.0776616;0.0776739;0.0776863;0.0776986;0.077711;0.0777233;0.0777357;0.0777481;0.0777604;0.0777728;0.0777851;0.0777975;0.0778098;0.0778222;0.0778345;0.0778469;0.0778592;0.0778716;0.0778839;0.0778963;0.0779086;0.077921;0.0779333;0.0779457;0.077958;0.0779704;0.0779827;0.0779951;0.0780074;0.0780198;0.0780321;0.0780445;0.0780568;0.0780692;0.0780815;0.0780939;0.0781062;0.0781186;0.0781309;0.0781433;0.0781556;0.078168;0.0781803;0.0781927;0.078205;0.0782174;0.0782297;0.0782421;0.0782544;0.0782668;0.0782791;0.0782915;0.0783038;0.0783162;0.0783285;0.0783409;0.0783532;0.0783656;0.0783779;0.0783903;0.0784026;0.078415;0.0784273;0.0784397;0.078452;0.0784644;0.0784767;0.0784891;0.0785014;0.0785138;0.0785261;0.0785385;0.0785509;0.0785632;0.0785756;0.0785879;0.0786003;0.0786126;0.078625;0.0786373;0.0786497;0.078662;0.0786744;0.0786867;0.0786991;0.0787114;0.0787238;0.0787361;0.0787485;0.0787608;0.0787732;0.0787855;0.0787979;0.0788102;0.0788226;0.0788349;0.0788473;0.0788596;0.078872;0.0788843;0.0788967;0.078909;0.0789214;0.0789337;0.0789461;0.0789584;0.0789708;0.0789831;0.0789955;0.0790078;0.0790202;0.0790325;0.0790449;0.0790572;0.0790696;0.0790819;0.0790943;0.0791066;0.079119;0.0791313;0.0791437;0.079156;0.0791684;0.0791807;0.0791931;0.0792054;0.0792178;0.0792301;0.0792425;0.0792548;0.0792672;0.0792795;0.0792919;0.0793042;0.0793166;0.0793289;0.0793413;0.0793537;0.079366;0.0793784;0.0793907;0.0794031;0.0794154;0.0794278;0.0794401;0.0794525;0.0794648;0.0794772;0.0794895;0.0795019;0.0795142;0.0795266;0.0795389;0.0795513;0.0795636;0.079576;0.0795883;0.0796007;0.079613;0.0796254;0.0796377;0.0796501;0.0796624;0.0796748;0.0796871;0.0796995;0.0797118;0.0797242;0.0797365;0.0797489;0.0797612;0.0797736;0.0797859;0.0797983;0.0798106;0.079823;0.0798353;0.0798477;0.07986;0.0798724;0.0798847;0.0798971;0.0799094;0.0799218;0.0799341;0.0799465;0.0799588;0.0799712;0.0799835;0.0799959;0.0800082;0.0800206;0.0800329;0.0800453;0.0800576;0.08007;0.0800823;0.0800947;0.080107;0.0801194;0.0801317;0.0801441;0.0801564;0.0801688;0.0801812;0.0801935;0.0802059;0.0802182;0.0802306;0.0802429;0.0802553;0.0802676;0.08028;0.0802923;0.0803047;0.080317;0.0803294;0.0803417;0.0803541;0.0803664;0.0803788;0.0803911;0.0804035;0.0804158;0.0804282;0.0804405;0.0804529;0.0804652;0.0804776;0.0804899;0.0805023;0.0805146;0.080527;0.0805393;0.0805517;0.080564;0.0805764;0.0805887;0.0806011;0.0806134;0.0806258;0.0806381;0.0806505;0.0806628;0.0806752;0.0806875;0.0806999;0.0807122;0.0807246;0.0807369;0.0807493;0.0807616;0.080774;0.0807863;0.0807987;0.080811;0.0808234;0.0808357;0.0808481;0.0808604;0.0808728;0.0808851;0.0808975;0.0809098;0.0809222;0.0809345;0.0809469;0.0809592;0.0809716;0.080984;0.0809963;0.0810087;0.081021;0.0810334;0.0810457;0.0810581;0.0810704;0.0810828;0.0810951;0.0811075;0.0811198;0.0811322;0.0811445;0.0811569;0.0811692;0.0811816;0.0811939;0.0812063;0.0812186;0.081231;0.0812433;0.0812557;0.081268;0.0812804;0.0812927;0.0813051;0.0813174;0.0813298;0.0813421;0.0813545;0.0813668;0.0813792;0.0813915;0.0814039;0.0814162;0.0814286;0.0814409;0.0814533;0.0814656;0.081478;0.0814903;0.0815027;0.081515;0.0815274;0.0815397;0.0815521;0.0815644;0.0815768;0.0815891;0.0816015;0.0816138;0.0816262;0.0816385;0.0816509;0.0816632;0.0816756;0.0816879;0.0817003;0.0817126;0.081725;0.0817373;0.0817497;0.081762;0.0817744;0.0817868;0.0817991;0.0818115;0.0818238;0.0818361;0.0818485;0.0818609;0.0818732;0.0818856;0.0818979;0.0819103;0.0819226;0.081935;0.0819473;0.0819597;0.081972;0.0819844;0.0819967;0.0820091;0.0820214;0.0820338;0.0820461;0.0820585;0.0820708;0.0820832;0.0820955;0.0821079;0.0821202;0.0821326;0.0821449;0.0821573;0.0821696;0.082182;0.0821943;0.0822067;0.082219;0.0822314;0.0822437;0.0822561;0.0822684;0.0822808;0.0822931;0.0823055;0.0823178;0.0823302;0.0823425;0.0823549;0.0823672;0.0823796;0.0823919;0.0824043;0.0824166;0.082429;0.0824413;0.0824537;0.082466;0.0824784;0.0824907;0.0825031;0.0825154;0.0825278;0.0825401;0.0825525;0.0825648;0.0825772;0.0825896;0.0826019;0.0826143;0.0826266;0.0826389;0.0826513;0.0826637;0.082676;0.0826884;0.0827007;0.0827131;0.0827254;0.0827378;0.0827501;0.0827625;0.0827748;0.0827872;0.0827995;0.0828119;0.0828242;0.0828366;0.0828489;0.0828613;0.0828736;0.082886;0.0828983;0.0829107;0.082923;0.0829354;0.0829477;0.0829601;0.0829724;0.0829848;0.0829971;0.0830095;0.0830218;0.0830342;0.0830465;0.0830589;0.0830712;0.0830836;0.0830959;0.0831083;0.0831206;0.083133;0.0831453;0.0831577;0.08317;0.0831824;0.0831947;0.0832071;0.0832194;0.0832318;0.0832441;0.0832565;0.0832688;0.0832812;0.0832935;0.0833059;0.0833182;0.0833306;0.0833429;0.0833553;0.0833676;0.08338;0.0833924;0.0834047;0.0834171;0.0834294;0.0834417;0.0834541;0.0834665;0.0834788;0.0834912;0.0835035;0.0835159;0.0835282;0.0835406;0.0835529;0.0835653;0.0835776;0.08359;0.0836023;0.0836147;0.083627;0.0836394;0.0836517;0.0836641;0.0836764;0.0836888;0.0837011;0.0837135;0.0837258;0.0837382;0.0837505;0.0837629;0.0837752;0.0837876;0.0837999;0.0838123;0.0838246;0.083837;0.0838493;0.0838617;0.083874;0.0838864;0.0838987;0.0839111;0.0839234;0.0839358;0.0839481;0.0839605;0.0839728;0.0839852;0.0839975;0.0840099;0.0840222;0.0840346;0.0840469;0.0840593;0.0840716;0.084084;0.0840963;0.0841087;0.084121;0.0841334;0.0841457;0.0841581;0.0841704;0.0841828;0.0841951;0.0842075;0.0842199;0.0842322;0.0842445;0.0842569;0.0842693;0.0842816;0.084294;0.0843063;0.0843187;0.084331;0.0843434;0.0843557;0.0843681;0.0843804;0.0843928;0.0844051;0.0844175;0.0844298;0.0844422;0.0844545;0.0844669;0.0844792;0.0844916;0.0845039;0.0845163;0.0845286;0.084541;0.0845533;0.0845657;0.084578;0.0845904;0.0846027;0.0846151;0.0846274;0.0846398;0.0846521;0.0846645;0.0846768;0.0846892;0.0847015;0.0847139;0.0847262;0.0847386;0.0847509;0.0847633;0.0847756;0.084788;0.0848003;0.0848127;0.084825;0.0848374;0.0848497;0.0848621;0.0848744;0.0848868;0.0848991;0.0849115;0.0849238;0.0849362;0.0849485;0.0849609;0.0849732;0.0849856;0.0849979;0.0850103;0.0850227;0.085035;0.0850473;0.0850597;0.0850721;0.0850844;0.0850968;0.0851091;0.0851215;0.0851338;0.0851462;0.0851585;0.0851709;0.0851832;0.0851956;0.0852079;0.0852203;0.0852326;0.085245;0.0852573;0.0852697;0.085282;0.0852944;0.0853067;0.0853191;0.0853314;0.0853438;0.0853561;0.0853685;0.0853808;0.0853932;0.0854055;0.0854179;0.0854302;0.0854426;0.0854549;0.0854673;0.0854796;0.085492;0.0855043;0.0855167;0.085529;0.0855414;0.0855537;0.0855661;0.0855784;0.0855908;0.0856031;0.0856155;0.0856278;0.0856402;0.0856525;0.0856649;0.0856772;0.0856896;0.0857019;0.0857143;0.0857266;0.085739;0.0857513;0.0857637;0.085776;0.0857884;0.0858007;0.0858131;0.0858255;0.0858378;0.0858501;0.0858625;0.0858748;0.0858872;0.0858996;0.0859119;0.0859243;0.0859366;0.085949;0.0859613;0.0859737;0.085986;0.0859984;0.0860107;0.0860231;0.0860354;0.0860478;0.0860601;0.0860725;0.0860848;0.0860972;0.0861095;0.0861219;0.0861342;0.0861466;0.0861589;0.0861713;0.0861836;0.086196;0.0862083;0.0862207;0.086233;0.0862454;0.0862577;0.0862701;0.0862824;0.0862948;0.0863071;0.0863195;0.0863318;0.0863442;0.0863565;0.0863689;0.0863812;0.0863936;0.0864059;0.0864183;0.0864306;0.086443;0.0864553;0.0864677;0.08648;0.0864924;0.0865047;0.0865171;0.0865294;0.0865418;0.0865541;0.0865665;0.0865788;0.0865912;0.0866035;0.0866159;0.0866283;0.0866406;0.0866529;0.0866653;0.0866776;0.08669;0.0867024;0.0867147;0.0867271;0.0867394;0.0867518;0.0867641;0.0867765;0.0867888;0.0868012;0.0868135;0.0868259;0.0868382;0.0868506;0.0868629;0.0868753;0.0868876;0.0869;0.0869123;0.0869247;0.086937;0.0869494;0.0869617;0.0869741;0.0869864;0.0869988;0.0870111;0.0870235;0.0870358;0.0870482;0.0870605;0.0870729;0.0870852;0.0870976;0.0871099;0.0871223;0.0871346;0.087147;0.0871593;0.0871717;0.087184;0.0871964;0.0872087;0.0872211;0.0872334;0.0872458;0.0872581;0.0872705;0.0872828;0.0872952;0.0873075;0.0873199;0.0873322;0.0873446;0.0873569;0.0873693;0.0873816;0.087394;0.0874063;0.0874187;0.0874311;0.0874434;0.0874557;0.0874681;0.0874804;0.0874928;0.0875052;0.0875175;0.0875299;0.0875422;0.0875546;0.0875669;0.0875793;0.0875916;0.087604;0.0876163;0.0876287;0.087641;0.0876534;0.0876657;0.0876781;0.0876904;0.0877028;0.0877151;0.0877275;0.0877398;0.0877522;0.0877645;0.0877769;0.0877892;0.0878016;0.0878139;0.0878263;0.0878386;0.087851;0.0878633;0.0878757;0.087888;0.0879004;0.0879127;0.0879251;0.0879374;0.0879498;0.0879621;0.0879745;0.0879868;0.0879992;0.0880115;0.0880239;0.0880362;0.0880486;0.0880609;0.0880733;0.0880856;0.088098;0.0881103;0.0881227;0.088135;0.0881474;0.0881597;0.0881721;0.0881844;0.0881968;0.0882091;0.0882215;0.0882339;0.0882462;0.0882585;0.0882709;0.0882832;0.0882956;0.088308;0.0883203;0.0883327;0.088345;0.0883574;0.0883697;0.0883821;0.0883944;0.0884068;0.0884191;0.0884315;0.0884438;0.0884562;0.0884685;0.0884809;0.0884932;0.0885056;0.0885179;0.0885303;0.0885426;0.088555;0.0885673;0.0885797;0.088592;0.0886044;0.0886167;0.0886291;0.0886414;0.0886538;0.0886661;0.0886785;0.0886908;0.0887032;0.0887155;0.0887279;0.0887402;0.0887526;0.0887649;0.0887773;0.0887896;0.088802;0.0888143;0.0888267;0.088839;0.0888514;0.0888637;0.0888761;0.0888884;0.0889008;0.0889131;0.0889255;0.0889378;0.0889502;0.0889625;0.0889749;0.0889872;0.0889996;0.0890119;0.0890243;0.0890366;0.089049;0.0890613;0.0890737;0.089086;0.0890984;0.0891108;0.0891231;0.0891355;0.0891478;0.0891602;0.0891725;0.0891849;0.0891972;0.0892096;0.0892219;0.0892343;0.0892466;0.089259;0.0892713;0.0892837;0.089296;0.0893084;0.0893207;0.0893331;0.0893454;0.0893578;0.0893701;0.0893825;0.0893948;0.0894072;0.0894195;0.0894319;0.0894442;0.0894566;0.0894689;0.0894813;0.0894936;0.089506;0.0895183;0.0895307;0.089543;0.0895554;0.0895677;0.0895801;0.0895924;0.0896048;0.0896171;0.0896295;0.0896418;0.0896542;0.0896665;0.0896789;0.0896912;0.0897036;0.0897159;0.0897283;0.0897406;0.089753;0.0897653;0.0897777;0.08979;0.0898024;0.0898147;0.0898271;0.0898394;0.0898518;0.0898641;0.0898765;0.0898888;0.0899012;0.0899136;0.0899259;0.0899383;0.0899506;0.089963;0.0899753;0.0899877;0.09;0.0900124;0.0900247;0.0900371;0.0900494;0.0900618;0.0900741;0.0900865;0.0900988;0.0901112;0.0901235;0.0901359;0.0901482;0.0901606;0.0901729;0.0901853;0.0901976;0.09021;0.0902223;0.0902347;0.090247;0.0902594;0.0902717;0.0902841;0.0902964;0.0903088;0.0903211;0.0903335;0.0903458;0.0903582;0.0903705;0.0903829;0.0903952;0.0904076;0.0904199;0.0904323;0.0904446;0.090457;0.0904693;0.0904817;0.090494;0.0905064;0.0905187;0.0905311;0.0905434;0.0905558;0.0905681;0.0905805;0.0905928;0.0906052;0.0906175;0.0906299;0.0906422;0.0906546;0.0906669;0.0906793;0.0906916;0.090704;0.0907163;0.0907287;0.0907411;0.0907534;0.0907658;0.0907781;0.0907905;0.0908028;0.0908152;0.0908275;0.0908399;0.0908522;0.0908646;0.0908769;0.0908893;0.0909016;0.090914;0.0909263;0.0909387;0.090951;0.0909634;0.0909757;0.0909881;0.0910004;0.0910128;0.0910251;0.0910375;0.0910498;0.0910622;0.0910745;0.0910869;0.0910992;0.0911116;0.0911239;0.0911363;0.0911486;0.091161;0.0911733;0.0911857;0.091198;0.0912104;0.0912227;0.0912351;0.0912474;0.0912598;0.0912721;0.0912845;0.0912968;0.0913092;0.0913215;0.0913339;0.0913462;0.0913586;0.0913709;0.0913833;0.0913956;0.091408;0.0914203;0.0914327;0.091445;0.0914574;0.0914697;0.0914821;0.0914944;0.0915068;0.0915191;0.0915315;0.0915439;0.0915562;0.0915686;0.0915809;0.0915933;0.0916056;0.091618;0.0916303;0.0916427;0.091655;0.0916674;0.0916797;0.0916921;0.0917044;0.0917168;0.0917291;0.0917415;0.0917538;0.0917662;0.0917785;0.0917909;0.0918032;0.0918156;0.0918279;0.0918403;0.0918526;0.091865;0.0918773;0.0918897;0.091902;0.0919144;0.0919267;0.0919391;0.0919514;0.0919638;0.0919761;0.0919885;0.0920008;0.0920132;0.0920255;0.0920379;0.0920502;0.0920626;0.0920749;0.0920873;0.0920996;0.092112;0.0921243;0.0921367;0.092149;0.0921614;0.0921737;0.0921861;0.0921984;0.0922108;0.0922231;0.0922355;0.0922478;0.0922602;0.0922725;0.0922849;0.0922972;0.0923096;0.0923219;0.0923343;0.0923467;0.092359;0.0923714;0.0923837;0.0923961;0.0924084;0.0924208;0.0924331;0.0924455;0.0924578;0.0924702;0.0924825;0.0924949;0.0925072;0.0925196;0.0925319;0.0925443;0.0925566;0.092569;0.0925813;0.0925937;0.092606;0.0926184;0.0926307;0.0926431;0.0926554;0.0926678;0.0926801;0.0926925;0.0927048;0.0927172;0.0927295;0.0927419;0.0927542;0.0927666;0.0927789;0.0927913;0.0928036;0.092816;0.0928283;0.0928407;0.092853;0.0928654;0.0928777;0.0928901;0.0929024;0.0929148;0.0929271;0.0929395;0.0929518;0.0929642;0.0929765;0.0929889;0.0930012;0.0930136;0.0930259;0.0930383;0.0930506;0.093063;0.0930753;0.0930877;0.0931;0.0931124;0.0931247;0.0931371;0.0931495;0.0931618;0.0931742;0.0931865;0.0931989;0.0932112;0.0932236;0.0932359;0.0932483;0.0932606;0.093273;0.0932853;0.0932977;0.09331;0.0933224;0.0933347;0.0933471;0.0933594;0.0933718;0.0933841;0.0933965;0.0934088;0.0934212;0.0934335;0.0934459;0.0934582;0.0934706;0.0934829;0.0934953;0.0935076;0.09352;0.0935323;0.0935447;0.093557;0.0935694;0.0935817;0.0935941;0.0936064;0.0936188;0.0936311;0.0936435;0.0936558;0.0936682;0.0936805;0.0936929;0.0937052;0.0937176;0.0937299;0.0937423;0.0937546;0.093767;0.0937793;0.0937917;0.093804;0.0938164;0.0938287;0.0938411;0.0938534;0.0938658;0.0938781;0.0938905;0.0939028;0.0939152;0.0939275;0.0939399;0.0939523;0.0939646;0.093977;0.0939893;0.0940017;0.094014;0.0940264;0.0940387;0.0940511;0.0940634;0.0940758;0.0940881;0.0941005;0.0941128;0.0941252;0.0941375;0.0941499;0.0941622;0.0941746;0.0941869;0.0941993;0.0942116;0.094224;0.0942363;0.0942487;0.094261;0.0942734;0.0942857;0.0942981;0.0943104;0.0943228;0.0943351;0.0943475;0.0943598;0.0943722;0.0943845;0.0943969;0.0944092;0.0944216;0.0944339;0.0944463;0.0944586;0.094471;0.0944833;0.0944957;0.094508;0.0945204;0.0945327;0.0945451;0.0945574;0.0945698;0.0945821;0.0945945;0.0946068;0.0946192;0.0946315;0.0946439;0.0946562;0.0946686;0.0946809;0.0946933;0.0947056;0.094718;0.0947303;0.0947427;0.0947551;0.0947674;0.0947798;0.0947921;0.0948045;0.0948168;0.0948292;0.0948415;0.0948539;0.0948662;0.0948786;0.0948909;0.0949033;0.0949156;0.094928;0.0949403;0.0949527;0.094965;0.0949774;0.0949897;0.0950021;0.0950144;0.0950268;0.0950391;0.0950515;0.0950638;0.0950762;0.0950885;0.0951009;0.0951132;0.0951256;0.0951379;0.0951503;0.0951626;0.095175;0.0951873;0.0951997;0.095212;0.0952244;0.0952367;0.0952491;0.0952614;0.0952738;0.0952861;0.0952985;0.0953108;0.0953232;0.0953355;0.0953479;0.0953602;0.0953726;0.0953849;0.0953973;0.0954096;0.095422;0.0954343;0.0954467;0.095459;0.0954714;0.0954837;0.0954961;0.0955084;0.0955208;0.0955331;0.0955455;0.0955578;0.0955702;0.0955826;0.0955949;0.0956073;0.0956196;0.095632;0.0956443;0.0956567;0.095669;0.0956814;0.0956937;0.0957061;0.0957184;0.0957308;0.0957431;0.0957555;0.0957678;0.0957802;0.0957925;0.0958049;0.0958172;0.0958296;0.0958419;0.0958543;0.0958666;0.095879;0.0958913;0.0959037;0.095916;0.0959284;0.0959407;0.0959531;0.0959654;0.0959778;0.0959901;0.0960025;0.0960148;0.0960272;0.0960395;0.0960519;0.0960642;0.0960766;0.0960889;0.0961013;0.0961136;0.096126;0.0961383;0.0961507;0.096163;0.0961754;0.0961877;0.0962001;0.0962124;0.0962248;0.0962371;0.0962495;0.0962618;0.0962742;0.0962865;0.0962989;0.0963112;0.0963236;0.0963359;0.0963483;0.0963606;0.096373;0.0963854;0.0963977;0.0964101;0.0964224;0.0964348;0.0964471;0.0964595;0.0964718;0.0964842;0.0964965;0.0965089;0.0965212;0.0965336;0.0965459;0.0965583;0.0965706;0.096583;0.0965953;0.0966077;0.09662;0.0966324;0.0966447;0.0966571;0.0966694;0.0966818;0.0966941;0.0967065;0.0967188;0.0967312;0.0967435;0.0967559;0.0967682;0.0967806;0.0967929;0.0968053;0.0968176;0.09683;0.0968423;0.0968547;0.096867;0.0968794;0.0968917;0.0969041;0.0969164;0.0969288;0.0969411;0.0969535;0.0969658;0.0969782;0.0969905;0.0970029;0.0970152;0.0970276;0.0970399;0.0970523;0.0970646;0.097077;0.0970893;0.0971017;0.097114;0.0971264;0.0971387;0.0971511;0.0971634;0.0971758;0.0971882;0.0972005;0.0972129;0.0972252;0.0972375;0.0972499;0.0972623;0.0972746;0.097287;0.0972993;0.0973117;0.097324;0.0973364;0.0973487;0.0973611;0.0973734;0.0973858;0.0973981;0.0974105;0.0974228;0.0974352;0.0974475;0.0974599;0.0974722;0.0974846;0.0974969;0.0975093;0.0975216;0.097534;0.0975463;0.0975587;0.097571;0.0975834;0.0975957;0.0976081;0.0976204;0.0976328;0.0976451;0.0976575;0.0976698;0.0976822;0.0976945;0.0977069;0.0977192;0.0977316;0.0977439;0.0977563;0.0977686;0.097781;0.0977933;0.0978057;0.097818;0.0978304;0.0978427;0.0978551;0.0978674;0.0978798;0.0978921;0.0979045;0.0979168;0.0979292;0.0979415;0.0979539;0.0979662;0.0979786;0.097991;0.0980033;0.0980157;0.098028;0.0980403;0.0980527;0.0980651;0.0980774;0.0980898;0.0981021;0.0981145;0.0981268;0.0981392;0.0981515;0.0981639;0.0981762;0.0981886;0.0982009;0.0982133;0.0982256;0.098238;0.0982503;0.0982627;0.098275;0.0982874;0.0982997;0.0983121;0.0983244;0.0983368;0.0983491;0.0983615;0.0983738;0.0983862;0.0983985;0.0984109;0.0984232;0.0984356;0.0984479;0.0984603;0.0984726;0.098485;0.0984973;0.0985097;0.098522;0.0985344;0.0985467;0.0985591;0.0985714;0.0985838;0.0985961;0.0986085;0.0986208;0.0986332;0.0986455;0.0986579;0.0986702;0.0986826;0.0986949;0.0987073;0.0987196;0.098732;0.0987443;0.0987567;0.098769;0.0987814;0.0987938;0.0988061;0.0988185;0.0988308;0.0988431;0.0988555;0.0988679;0.0988802;0.0988926;0.0989049;0.0989173;0.0989296;0.098942;0.0989543;0.0989667;0.098979;0.0989914;0.0990037;0.0990161;0.0990284;0.0990408;0.0990531;0.0990655;0.0990778;0.0990902;0.0991025;0.0991149;0.0991272;0.0991396;0.0991519;0.0991643;0.0991766;0.099189;0.0992013;0.0992137;0.099226;0.0992384;0.0992507;0.0992631;0.0992754;0.0992878;0.0993001;0.0993125;0.0993248;0.0993372;0.0993495;0.0993619;0.0993742;0.0993866;0.0993989;0.0994113;0.0994236;0.099436;0.0994483;0.0994607;0.099473;0.0994854;0.0994977;0.0995101;0.0995224;0.0995348;0.0995471;0.0995595;0.0995718;0.0995842;0.0995966;0.0996089;0.0996213;0.0996336;0.0996459;0.0996583;0.0996707;0.099683;0.0996954;0.0997077;0.0997201;0.0997324;0.0997448;0.0997571;0.0997695;0.0997818;0.0997942;0.0998065;0.0998189;0.0998312;0.0998436;0.0998559;0.0998683;0.0998806;0.099893;0.0999053;0.0999177;0.09993;0.0999424;0.0999547;0.0999671;0.0999794;0.0999918;0.100004;0.100016;0.100029;0.100041;0.100054;0.100066;0.100078;0.100091;0.100103;0.100115;0.100128;0.10014;0.100152;0.100165;0.100177;0.100189;0.100202;0.100214;0.100226;0.100239;0.100251;0.100263;0.100276;0.100288;0.100301;0.100313;0.100325;0.100338;0.10035;0.100362;0.100375;0.100387;0.100399;0.100412;0.100424;0.100436;0.100449;0.100461;0.100473;0.100486;0.100498;0.100511;0.100523;0.100535;0.100548;0.10056;0.100572;0.100585;0.100597;0.100609;0.100622;0.100634;0.100646;0.100659;0.100671;0.100683;0.100696;0.100708;0.10072;0.100733;0.100745;0.100758;0.10077;0.100782;0.100795;0.100807;0.100819;0.100832;0.100844;0.100856;0.100869;0.100881;0.100893;0.100906;0.100918;0.10093;0.100943;0.100955;0.100967;0.10098;0.100992;0.101005;0.101017;0.101029;0.101042;0.101054;0.101066;0.101079;0.101091;0.101103;0.101116;0.101128;0.10114;0.101153;0.101165;0.101177;0.10119;0.101202;0.101214;0.101227;0.101239;0.101252;0.101264;0.101276;0.101289;0.101301;0.101313;0.101326;0.101338;0.10135;0.101363;0.101375;0.101387;0.1014;0.101412;0.101424;0.101437;0.101449;0.101462;0.101474;0.101486;0.101499;0.101511;0.101523;0.101536;0.101548;0.10156;0.101573;0.101585;0.101597;0.10161;0.101622;0.101634;0.101647;0.101659;0.101671;0.101684;0.101696;0.101709;0.101721;0.101733;0.101746;0.101758;0.10177;0.101783;0.101795;0.101807;0.10182;0.101832;0.101844;0.101857;0.101869;0.101881;0.101894;0.101906;0.101918;0.101931;0.101943;0.101956;0.101968;0.10198;0.101993;0.102005;0.102017;0.10203;0.102042;0.102054;0.102067;0.102079;0.102091;0.102104;0.102116;0.102128;0.102141;0.102153;0.102166;0.102178;0.10219;0.102203;0.102215;0.102227;0.10224;0.102252;0.102264;0.102277;0.102289;0.102301;0.102314;0.102326;0.102338;0.102351;0.102363;0.102375;0.102388;0.1024;0.102413;0.102425;0.102437;0.10245;0.102462;0.102474;0.102487;0.102499;0.102511;0.102524;0.102536;0.102548;0.102561;0.102573;0.102585;0.102598;0.10261;0.102622;0.102635;0.102647;0.10266;0.102672;0.102684;0.102697;0.102709;0.102721;0.102734;0.102746;0.102758;0.102771;0.102783;0.102795;0.102808;0.10282;0.102832;0.102845;0.102857;0.10287;0.102882;0.102894;0.102907;0.102919;0.102931;0.102944;0.102956;0.102968;0.102981;0.102993;0.103005;0.103018;0.10303;0.103042;0.103055;0.103067;0.103079;0.103092;0.103104;0.103117;0.103129;0.103141;0.103154;0.103166;0.103178;0.103191;0.103203;0.103215;0.103228;0.10324;0.103252;0.103265;0.103277;0.103289;0.103302;0.103314;0.103326;0.103339;0.103351;0.103364;0.103376;0.103388;0.103401;0.103413;0.103425;0.103438;0.10345;0.103462;0.103475;0.103487;0.103499;0.103512;0.103524;0.103536;0.103549;0.103561;0.103573;0.103586;0.103598;0.103611;0.103623;0.103635;0.103648;0.10366;0.103672;0.103685;0.103697;0.103709;0.103722;0.103734;0.103746;0.103759;0.103771;0.103783;0.103796;0.103808;0.103821;0.103833;0.103845;0.103858;0.10387;0.103882;0.103895;0.103907;0.103919;0.103932;0.103944;0.103956;0.103969;0.103981;0.103993;0.104006;0.104018;0.10403;0.104043;0.104055;0.104068;0.10408;0.104092;0.104105;0.104117;0.104129;0.104142;0.104154;0.104166;0.104179;0.104191;0.104203;0.104216;0.104228;0.10424;0.104253;0.104265;0.104277;0.10429;0.104302;0.104315;0.104327;0.104339;0.104352;0.104364;0.104376;0.104389;0.104401;0.104413;0.104426;0.104438;0.10445;0.104463;0.104475;0.104487;0.1045;0.104512;0.104525;0.104537;0.104549;0.104562;0.104574;0.104586;0.104599;0.104611;0.104623;0.104636;0.104648;0.10466;0.104673;0.104685;0.104697;0.10471;0.104722;0.104734;0.104747;0.104759;0.104772;0.104784;0.104796;0.104809;0.104821;0.104833;0.104846;0.104858;0.10487;0.104883;0.104895;0.104907;0.10492;0.104932;0.104944;0.104957;0.104969;0.104981;0.104994;0.105006;0.105019;0.105031;0.105043;0.105056;0.105068;0.10508;0.105093;0.105105;0.105117;0.10513;0.105142;0.105154;0.105167;0.105179;0.105191;0.105204;0.105216;0.105228;0.105241;0.105253;0.105266;0.105278;0.10529;0.105303;0.105315;0.105327;0.10534;0.105352;0.105364;0.105377;0.105389;0.105401;0.105414;0.105426;0.105438;0.105451;0.105463;0.105476;0.105488;0.1055;0.105513;0.105525;0.105537;0.10555;0.105562;0.105574;0.105587;0.105599;0.105611;0.105624;0.105636;0.105648;0.105661;0.105673;0.105685;0.105698;0.10571;0.105723;0.105735;0.105747;0.10576;0.105772;0.105784;0.105797;0.105809;0.105821;0.105834;0.105846;0.105858;0.105871;0.105883;0.105895;0.105908;0.10592;0.105932;0.105945;0.105957;0.10597;0.105982;0.105994;0.106007;0.106019;0.106031;0.106044;0.106056;0.106068;0.106081;0.106093;0.106105;0.106118;0.10613;0.106142;0.106155;0.106167;0.10618;0.106192;0.106204;0.106217;0.106229;0.106241;0.106254;0.106266;0.106278;0.106291;0.106303;0.106315;0.106328;0.10634;0.106352;0.106365;0.106377;0.106389;0.106402;0.106414;0.106427;0.106439;0.106451;0.106464;0.106476;0.106488;0.106501;0.106513;0.106525;0.106538;0.10655;0.106562;0.106575;0.106587;0.106599;0.106612;0.106624;0.106636;0.106649;0.106661;0.106674;0.106686;0.106698;0.106711;0.106723;0.106735;0.106748;0.10676;0.106772;0.106785;0.106797;0.106809;0.106822;0.106834;0.106846;0.106859;0.106871;0.106883;0.106896;0.106908;0.106921;0.106933;0.106945;0.106958;0.10697;0.106982;0.106995;0.107007;0.107019;0.107032;0.107044;0.107056;0.107069;0.107081;0.107093;0.107106;0.107118;0.107131;0.107143;0.107155;0.107168;0.10718;0.107192;0.107205;0.107217;0.107229;0.107242;0.107254;0.107266;0.107279;0.107291;0.107303;0.107316;0.107328;0.10734;0.107353;0.107365;0.107378;0.10739;0.107402;0.107415;0.107427;0.107439;0.107452;0.107464;0.107476;0.107489;0.107501;0.107513;0.107526;0.107538;0.10755;0.107563;0.107575;0.107587;0.1076;0.107612;0.107625;0.107637;0.107649;0.107662;0.107674;0.107686;0.107699;0.107711;0.107723;0.107736;0.107748;0.10776;0.107773;0.107785;0.107797;0.10781;0.107822;0.107835;0.107847;0.107859;0.107872;0.107884;0.107896;0.107909;0.107921;0.107933;0.107946;0.107958;0.10797;0.107983;0.107995;0.108007;0.10802;0.108032;0.108044;0.108057;0.108069;0.108082;0.108094;0.108106;0.108119;0.108131;0.108143;0.108156;0.108168;0.10818;0.108193;0.108205;0.108217;0.10823;0.108242;0.108254;0.108267;0.108279;0.108291;0.108304;0.108316;0.108329;0.108341;0.108353;0.108366;0.108378;0.10839;0.108403;0.108415;0.108427;0.10844;0.108452;0.108464;0.108477;0.108489;0.108501;0.108514;0.108526;0.108539;0.108551;0.108563;0.108576;0.108588;0.1086;0.108613;0.108625;0.108637;0.10865;0.108662;0.108674;0.108687;0.108699;0.108711;0.108724;0.108736;0.108748;0.108761;0.108773;0.108786;0.108798;0.10881;0.108823;0.108835;0.108847;0.10886;0.108872;0.108884;0.108897;0.108909;0.108921;0.108934;0.108946;0.108958;0.108971;0.108983;0.108995;0.109008;0.10902;0.109033;0.109045;0.109057;0.10907;0.109082;0.109094;0.109107;0.109119;0.109131;0.109144;0.109156;0.109168;0.109181;0.109193;0.109205;0.109218;0.10923;0.109242;0.109255;0.109267;0.10928;0.109292;0.109304;0.109317;0.109329;0.109341;0.109354;0.109366;0.109378;0.109391;0.109403;0.109415;0.109428;0.10944;0.109452;0.109465;0.109477;0.10949;0.109502;0.109514;0.109527;0.109539;0.109551;0.109564;0.109576;0.109588;0.109601;0.109613;0.109625;0.109638;0.10965;0.109662;0.109675;0.109687;0.109699;0.109712;0.109724;0.109737;0.109749;0.109761;0.109774;0.109786;0.109798;0.109811;0.109823;0.109835;0.109848;0.10986;0.109872;0.109885;0.109897;0.109909;0.109922;0.109934;0.109946;0.109959;0.109971;0.109984;0.109996;0.110008;0.110021;0.110033;0.110045;0.110058;0.11007;0.110082;0.110095;0.110107;0.110119;0.110132;0.110144;0.110156;0.110169;0.110181;0.110194;0.110206;0.110218;0.110231;0.110243;0.110255;0.110268;0.11028;0.110292;0.110305;0.110317;0.110329;0.110342;0.110354;0.110366;0.110379;0.110391;0.110403;0.110416;0.110428;0.110441;0.110453;0.110465;0.110478;0.11049;0.110502;0.110515;0.110527;0.110539;0.110552;0.110564;0.110576;0.110589;0.110601;0.110613;0.110626;0.110638;0.11065;0.110663;0.110675;0.110688;0.1107;0.110712;0.110725;0.110737;0.110749;0.110762;0.110774;0.110786;0.110799;0.110811;0.110823;0.110836;0.110848;0.11086;0.110873;0.110885;0.110897;0.11091;0.110922;0.110935;0.110947;0.110959;0.110972;0.110984;0.110996;0.111009;0.111021;0.111033;0.111046;0.111058;0.11107;0.111083;0.111095;0.111107;0.11112;0.111132;0.111145;0.111157;0.111169;0.111182;0.111194;0.111206;0.111219;0.111231;0.111243;0.111256;0.111268;0.11128;0.111293;0.111305;0.111317;0.11133;0.111342;0.111354;0.111367;0.111379;0.111392;0.111404;0.111416;0.111429;0.111441;0.111453;0.111466;0.111478;0.11149;0.111503;0.111515;0.111527;0.11154;0.111552;0.111564;0.111577;0.111589;0.111601;0.111614;0.111626;0.111639;0.111651;0.111663;0.111676;0.111688;0.1117;0.111713;0.111725;0.111737;0.11175;0.111762;0.111774;0.111787;0.111799;0.111811;0.111824;0.111836;0.111849;0.111861;0.111873;0.111886;0.111898;0.11191;0.111923;0.111935;0.111947;0.11196;0.111972;0.111984;0.111997;0.112009;0.112021;0.112034;0.112046;0.112058;0.112071;0.112083;0.112096;0.112108;0.11212;0.112133;0.112145;0.112157;0.11217;0.112182;0.112194;0.112207;0.112219;0.112231;0.112244;0.112256;0.112268;0.112281;0.112293;0.112305;0.112318;0.11233;0.112343;0.112355;0.112367;0.11238;0.112392;0.112404;0.112417;0.112429;0.112441;0.112454;0.112466;0.112478;0.112491;0.112503;0.112515;0.112528;0.11254;0.112553;0.112565;0.112577;0.11259;0.112602;0.112614;0.112627;0.112639;0.112651;0.112664;0.112676;0.112688;0.112701;0.112713;0.112725;0.112738;0.11275;0.112762;0.112775;0.112787;0.1128;0.112812;0.112824;0.112837;0.112849;0.112861;0.112874;0.112886;0.112898;0.112911;0.112923;0.112935;0.112948;0.11296;0.112972;0.112985;0.112997;0.113009;0.113022;0.113034;0.113047;0.113059;0.113071;0.113084;0.113096;0.113108;0.113121;0.113133;0.113145;0.113158;0.11317;0.113182;0.113195;0.113207;0.113219;0.113232;0.113244;0.113256;0.113269;0.113281;0.113294;0.113306;0.113318;0.113331;0.113343;0.113355;0.113368;0.11338;0.113392;0.113405;0.113417;0.113429;0.113442;0.113454;0.113466;0.113479;0.113491;0.113504;0.113516;0.113528;0.113541;0.113553;0.113565;0.113578;0.11359;0.113602;0.113615;0.113627;0.113639;0.113652;0.113664;0.113676;0.113689;0.113701;0.113713;0.113726;0.113738;0.113751;0.113763;0.113775;0.113788;0.1138;0.113812;0.113825;0.113837;0.113849;0.113862;0.113874;0.113886;0.113899;0.113911;0.113923;0.113936;0.113948;0.11396;0.113973;0.113985;0.113998;0.11401;0.114022;0.114035;0.114047;0.114059;0.114072;0.114084;0.114096;0.114109;0.114121;0.114133;0.114146;0.114158;0.11417;0.114183;0.114195;0.114207;0.11422;0.114232;0.114245;0.114257;0.114269;0.114282;0.114294;0.114306;0.114319;0.114331;0.114343;0.114356;0.114368;0.11438;0.114393;0.114405;0.114417;0.11443;0.114442;0.114455;0.114467;0.114479;0.114492;0.114504;0.114516;0.114529;0.114541;0.114553;0.114566;0.114578;0.11459;0.114603;0.114615;0.114627;0.11464;0.114652;0.114664;0.114677;0.114689;0.114702;0.114714;0.114726;0.114739;0.114751;0.114763;0.114776;0.114788;0.1148;0.114813;0.114825;0.114837;0.11485;0.114862;0.114874;0.114887;0.114899;0.114911;0.114924;0.114936;0.114949;0.114961;0.114973;0.114986;0.114998;0.11501;0.115023;0.115035;0.115047;0.11506;0.115072;0.115084;0.115097;0.115109;0.115121;0.115134;0.115146;0.115159;0.115171;0.115183;0.115196;0.115208;0.11522;0.115233;0.115245;0.115257;0.11527;0.115282;0.115294;0.115307;0.115319;0.115331;0.115344;0.115356;0.115368;0.115381;0.115393;0.115406;0.115418;0.11543;0.115443;0.115455;0.115467;0.11548;0.115492;0.115504;0.115517;0.115529;0.115541;0.115554;0.115566;0.115578;0.115591;0.115603;0.115615;0.115628;0.11564;0.115653;0.115665;0.115677;0.11569;0.115702;0.115714;0.115727;0.115739;0.115751;0.115764;0.115776;0.115788;0.115801;0.115813;0.115825;0.115838;0.11585;0.115863;0.115875;0.115887;0.1159;0.115912;0.115924;0.115937;0.115949;0.115961;0.115974;0.115986;0.115998;0.116011;0.116023;0.116035;0.116048;0.11606;0.116072;0.116085;0.116097;0.11611;0.116122;0.116134;0.116147;0.116159;0.116171;0.116184;0.116196;0.116208;0.116221;0.116233;0.116245;0.116258;0.11627;0.116282;0.116295;0.116307;0.116319;0.116332;0.116344;0.116357;0.116369;0.116381;0.116394;0.116406;0.116418;0.116431;0.116443;0.116455;0.116468;0.11648;0.116492;0.116505;0.116517;0.116529;0.116542;0.116554;0.116566;0.116579;0.116591;0.116604;0.116616;0.116628;0.116641;0.116653;0.116665;0.116678;0.11669;0.116702;0.116715;0.116727;0.116739;0.116752;0.116764;0.116776;0.116789;0.116801;0.116814;0.116826;0.116838;0.116851;0.116863;0.116875;0.116888;0.1169;0.116912;0.116925;0.116937;0.116949;0.116962;0.116974;0.116986;0.116999;0.117011;0.117023;0.117036;0.117048;0.117061;0.117073;0.117085;0.117098;0.11711;0.117122;0.117135;0.117147;0.117159;0.117172;0.117184;0.117196;0.117209;0.117221;0.117233;0.117246;0.117258;0.11727;0.117283;0.117295;0.117308;0.11732;0.117332;0.117345;0.117357;0.117369;0.117382;0.117394;0.117406;0.117419;0.117431;0.117443;0.117456;0.117468;0.11748;0.117493;0.117505;0.117518;0.11753;0.117542;0.117555;0.117567;0.117579;0.117592;0.117604;0.117616;0.117629;0.117641;0.117653;0.117666;0.117678;0.11769;0.117703;0.117715;0.117727;0.11774;0.117752;0.117765;0.117777;0.117789;0.117802;0.117814;0.117826;0.117839;0.117851;0.117863;0.117876;0.117888;0.1179;0.117913;0.117925;0.117937;0.11795;0.117962;0.117974;0.117987;0.117999;0.118012;0.118024;0.118036;0.118049;0.118061;0.118073;0.118086;0.118098;0.11811;0.118123;0.118135;0.118147;0.11816;0.118172;0.118184;0.118197;0.118209;0.118221;0.118234;0.118246;0.118259;0.118271;0.118283;0.118296;0.118308;0.11832;0.118333;0.118345;0.118357;0.11837;0.118382;0.118394;0.118407;0.118419;0.118431;0.118444;0.118456;0.118469;0.118481;0.118493;0.118506;0.118518;0.11853;0.118543;0.118555;0.118567;0.11858;0.118592;0.118604;0.118617;0.118629;0.118641;0.118654;0.118666;0.118678;0.118691;0.118703;0.118716;0.118728;0.11874;0.118753;0.118765;0.118777;0.11879;0.118802;0.118814;0.118827;0.118839;0.118851;0.118864;0.118876;0.118888;0.118901;0.118913;0.118925;0.118938;0.11895;0.118963;0.118975;0.118987;0.119;0.119012;0.119024;0.119037;0.119049;0.119061;0.119074;0.119086;0.119098;0.119111;0.119123;0.119135;0.119148;0.11916;0.119173;0.119185;0.119197;0.11921;0.119222;0.119234;0.119247;0.119259;0.119271;0.119284;0.119296;0.119308;0.119321;0.119333;0.119345;0.119358;0.11937;0.119382;0.119395;0.119407;0.11942;0.119432;0.119444;0.119457;0.119469;0.119481;0.119494;0.119506;0.119518;0.119531;0.119543;0.119555;0.119568;0.11958;0.119592;0.119605;0.119617;0.119629;0.119642;0.119654;0.119667;0.119679;0.119691;0.119704;0.119716;0.119728;0.119741;0.119753;0.119765;0.119778;0.11979;0.119802;0.119815;0.119827;0.119839;0.119852;0.119864;0.119877;0.119889;0.119901;0.119914;0.119926;0.119938;0.119951;0.119963;0.119975;0.119988;0.12;0.120012;0.120025;0.120037;0.120049;0.120062;0.120074;0.120086;0.120099;0.120111;0.120124;0.120136;0.120148;0.120161;0.120173;0.120185;0.120198;0.12021;0.120222;0.120235;0.120247;0.120259;0.120272;0.120284;0.120296;0.120309;0.120321;0.120333;0.120346;0.120358;0.120371;0.120383;0.120395;0.120408;0.12042;0.120432;0.120445;0.120457;0.120469;0.120482;0.120494;0.120506;0.120519;0.120531;0.120543;0.120556;0.120568;0.12058;0.120593;0.120605;0.120618;0.12063;0.120642;0.120655;0.120667;0.120679;0.120692;0.120704;0.120716;0.120729;0.120741;0.120753;0.120766;0.120778;0.12079;0.120803;0.120815;0.120828;0.12084;0.120852;0.120865;0.120877;0.120889;0.120902;0.120914;0.120926;0.120939;0.120951;0.120963;0.120976;0.120988;0.121;0.121013;0.121025;0.121037;0.12105;0.121062;0.121075;0.121087;0.121099;0.121112;0.121124;0.121136;0.121149;0.121161;0.121173;0.121186;0.121198;0.12121;0.121223;0.121235;0.121247;0.12126;0.121272;0.121284;0.121297;0.121309;0.121322;0.121334;0.121346;0.121359;0.121371;0.121383;0.121396;0.121408;0.12142;0.121433;0.121445;0.121457;0.12147;0.121482;0.121494;0.121507;0.121519;0.121532;0.121544;0.121556;0.121569;0.121581;0.121593;0.121606;0.121618;0.12163;0.121643;0.121655;0.121667;0.12168;0.121692;0.121704;0.121717;0.121729;0.121741;0.121754;0.121766;0.121779;0.121791;0.121803;0.121816;0.121828;0.12184;0.121853;0.121865;0.121877;0.12189;0.121902;0.121914;0.121927;0.121939;0.121951;0.121964;0.121976;0.121988;0.122001;0.122013;0.122026;0.122038;0.12205;0.122063;0.122075;0.122087;0.1221;0.122112;0.122124;0.122137;0.122149;0.122161;0.122174;0.122186;0.122198;0.122211;0.122223;0.122235;0.122248;0.12226;0.122273;0.122285;0.122297;0.12231;0.122322;0.122334;0.122347;0.122359;0.122371;0.122384;0.122396;0.122408;0.122421;0.122433;0.122445;0.122458;0.12247;0.122483;0.122495;0.122507;0.12252;0.122532;0.122544;0.122557;0.122569;0.122581;0.122594;0.122606;0.122618;0.122631;0.122643;0.122655;0.122668;0.12268;0.122692;0.122705;0.122717;0.12273;0.122742;0.122754;0.122767;0.122779;0.122791;0.122804;0.122816;0.122828;0.122841;0.122853;0.122865;0.122878;0.12289;0.122902;0.122915;0.122927;0.122939;0.122952;0.122964;0.122977;0.122989;0.123001;0.123014;0.123026;0.123038;0.123051;0.123063;0.123075;0.123088;0.1231;0.123112;0.123125;0.123137;0.123149;0.123162;0.123174;0.123187;0.123199;0.123211;0.123224;0.123236;0.123248;0.123261;0.123273;0.123285;0.123298;0.12331;0.123322;0.123335;0.123347;0.123359;0.123372;0.123384;0.123396;0.123409;0.123421;0.123434;0.123446;0.123458;0.123471;0.123483;0.123495;0.123508;0.12352;0.123532;0.123545;0.123557;0.123569;0.123582;0.123594;0.123606;0.123619;0.123631;0.123643;0.123656;0.123668;0.123681;0.123693;0.123705;0.123718;0.12373;0.123742;0.123755;0.123767;0.123779;0.123792;0.123804;0.123816;0.123829;0.123841;0.123853;0.123866;0.123878;0.12389;0.123903;0.123915;0.123928;0.12394;0.123952;0.123965;0.123977;0.123989;0.124002;0.124014;0.124026;0.124039;0.124051;0.124063;0.124076;0.124088;0.1241;0.124113;0.124125;0.124138;0.12415;0.124162;0.124175;0.124187;0.124199;0.124212;0.124224;0.124236;0.124249;0.124261;0.124273;0.124286;0.124298;0.12431;0.124323;0.124335;0.124347;0.12436;0.124372;0.124385;0.124397;0.124409;0.124422;0.124434;0.124446;0.124459;0.124471;0.124483;0.124496;0.124508;0.12452;0.124533;0.124545;0.124557;0.12457;0.124582;0.124594;0.124607;0.124619;0.124632;0.124644;0.124656;0.124669;0.124681;0.124693;0.124706;0.124718;0.12473;0.124743;0.124755;0.124767;0.12478;0.124792;0.124804;0.124817;0.124829;0.124842;0.124854;0.124866;0.124879;0.124891;0.124903;0.124916;0.124928;0.12494;0.124953;0.124965;0.124977;0.12499;0.125002;0.125014;0.125027;0.125039;0.125051;0.125064;0.125076;0.125089;0.125101;0.125113;0.125126;0.125138;0.12515;0.125163;0.125175;0.125187;0.1252;0.125212;0.125224;0.125237;0.125249;0.125261;0.125274;0.125286;0.125298;0.125311;0.125323;0.125336;0.125348;0.12536;0.125373;0.125385;0.125397;0.12541;0.125422;0.125434;0.125447;0.125459;0.125471;0.125484;0.125496;0.125508;0.125521;0.125533;0.125546;0.125558;0.12557;0.125583;0.125595;0.125607;0.12562;0.125632;0.125644;0.125657;0.125669;0.125681;0.125694;0.125706;0.125718;0.125731;0.125743;0.125755;0.125768;0.12578;0.125793;0.125805;0.125817;0.12583;0.125842;0.125854;0.125867;0.125879;0.125891;0.125904;0.125916;0.125928;0.125941;0.125953;0.125965;0.125978;0.12599;0.126002;0.126015;0.126027;0.12604;0.126052;0.126064;0.126077;0.126089;0.126101;0.126114;0.126126;0.126138;0.126151;0.126163;0.126175;0.126188;0.1262;0.126212;0.126225;0.126237;0.126249;0.126262;0.126274;0.126287;0.126299;0.126311;0.126324;0.126336;0.126348;0.126361;0.126373;0.126385;0.126398;0.12641;0.126422;0.126435;0.126447;0.126459;0.126472;0.126484;0.126497;0.126509;0.126521;0.126534;0.126546;0.126558;0.126571;0.126583;0.126595;0.126608;0.12662;0.126632;0.126645;0.126657;0.126669;0.126682;0.126694;0.126706;0.126719;0.126731;0.126744;0.126756;0.126768;0.126781;0.126793;0.126805;0.126818;0.12683;0.126842;0.126855;0.126867;0.126879;0.126892;0.126904;0.126916;0.126929;0.126941;0.126953;0.126966;0.126978;0.126991;0.127003;0.127015;0.127028;0.12704;0.127052;0.127065;0.127077;0.127089;0.127102;0.127114;0.127126;0.127139;0.127151;0.127163;0.127176;0.127188;0.1272;0.127213;0.127225;0.127238;0.12725;0.127262;0.127275;0.127287;0.127299;0.127312;0.127324;0.127336;0.127349;0.127361;0.127373;0.127386;0.127398;0.12741;0.127423;0.127435;0.127448;0.12746;0.127472;0.127485;0.127497;0.127509;0.127522;0.127534;0.127546;0.127559;0.127571;0.127583;0.127596;0.127608;0.12762;0.127633;0.127645;0.127657;0.12767;0.127682;0.127695;0.127707;0.127719;0.127732;0.127744;0.127756;0.127769;0.127781;0.127793;0.127806;0.127818;0.12783;0.127843;0.127855;0.127867;0.12788;0.127892;0.127904;0.127917;0.127929;0.127942;0.127954;0.127966;0.127979;0.127991;0.128003;0.128016;0.128028;0.12804;0.128053;0.128065;0.128077;0.12809;0.128102;0.128114;0.128127;0.128139;0.128152;0.128164;0.128176;0.128189;0.128201;0.128213;0.128226;0.128238;0.12825;0.128263;0.128275;0.128287;0.1283;0.128312;0.128324;0.128337;0.128349;0.128361;0.128374;0.128386;0.128399;0.128411;0.128423;0.128436;0.128448;0.12846;0.128473;0.128485;0.128497;0.12851;0.128522;0.128534;0.128547;0.128559;0.128571;0.128584;0.128596;0.128608;0.128621;0.128633;0.128646;0.128658;0.12867;0.128683;0.128695;0.128707;0.12872;0.128732;0.128744;0.128757;0.128769;0.128781;0.128794;0.128806;0.128818;0.128831;0.128843;0.128856;0.128868;0.12888;0.128893;0.128905;0.128917;0.12893;0.128942;0.128954;0.128967;0.128979;0.128991;0.129004;0.129016;0.129028;0.129041;0.129053;0.129065;0.129078;0.12909;0.129103;0.129115;0.129127;0.12914;0.129152;0.129164;0.129177;0.129189;0.129201;0.129214;0.129226;0.129238;0.129251;0.129263;0.129275;0.129288;0.1293;0.129312;0.129325;0.129337;0.12935;0.129362;0.129374;0.129387;0.129399;0.129411;0.129424;0.129436;0.129448;0.129461;0.129473;0.129485;0.129498;0.12951;0.129522;0.129535;0.129547;0.12956;0.129572;0.129584;0.129597;0.129609;0.129621;0.129634;0.129646;0.129658;0.129671;0.129683;0.129695;0.129708;0.12972;0.129732;0.129745;0.129757;0.129769;0.129782;0.129794;0.129807;0.129819;0.129831;0.129844;0.129856;0.129868;0.129881;0.129893;0.129905;0.129918;0.12993;0.129942;0.129955;0.129967;0.129979;0.129992;0.130004;0.130016;0.130029;0.130041;0.130054;0.130066;0.130078;0.130091;0.130103;0.130115;0.130128;0.13014;0.130152;0.130165;0.130177;0.130189;0.130202;0.130214;0.130226;0.130239;0.130251;0.130263;0.130276;0.130288;0.130301;0.130313;0.130325;0.130338;0.13035;0.130362;0.130375;0.130387;0.130399;0.130412;0.130424;0.130436;0.130449;0.130461;0.130473;0.130486;0.130498;0.130511;0.130523;0.130535;0.130548;0.13056;0.130572;0.130585;0.130597;0.130609;0.130622;0.130634;0.130646;0.130659;0.130671;0.130683;0.130696;0.130708;0.13072;0.130733;0.130745;0.130758;0.13077;0.130782;0.130795;0.130807;0.130819;0.130832;0.130844;0.130856;0.130869;0.130881;0.130893;0.130906;0.130918;0.13093;0.130943;0.130955;0.130967;0.13098;0.130992;0.131005;0.131017;0.131029;0.131042;0.131054;0.131066;0.131079;0.131091;0.131103;0.131116;0.131128;0.13114;0.131153;0.131165;0.131177;0.13119;0.131202;0.131214;0.131227;0.131239;0.131252;0.131264;0.131276;0.131289;0.131301;0.131313;0.131326;0.131338;0.13135;0.131363;0.131375;0.131387;0.1314;0.131412;0.131424;0.131437;0.131449;0.131462;0.131474;0.131486;0.131499;0.131511;0.131523;0.131536;0.131548;0.13156;0.131573;0.131585;0.131597;0.13161;0.131622;0.131634;0.131647;0.131659;0.131671;0.131684;0.131696;0.131709;0.131721;0.131733;0.131746;0.131758;0.13177;0.131783;0.131795;0.131807;0.13182;0.131832;0.131844;0.131857;0.131869;0.131881;0.131894;0.131906;0.131918;0.131931;0.131943;0.131956;0.131968;0.13198;0.131993;0.132005;0.132017;0.13203;0.132042;0.132054;0.132067;0.132079;0.132091;0.132104;0.132116;0.132128;0.132141;0.132153;0.132166;0.132178;0.13219;0.132203;0.132215;0.132227;0.13224;0.132252;0.132264;0.132277;0.132289;0.132301;0.132314;0.132326;0.132338;0.132351;0.132363;0.132375;0.132388;0.1324;0.132413;0.132425;0.132437;0.13245;0.132462;0.132474;0.132487;0.132499;0.132511;0.132524;0.132536;0.132548;0.132561;0.132573;0.132585;0.132598;0.13261;0.132622;0.132635;0.132647;0.13266;0.132672;0.132684;0.132697;0.132709;0.132721;0.132734;0.132746;0.132758;0.132771;0.132783;0.132795;0.132808;0.13282;0.132832;0.132845;0.132857;0.132869;0.132882;0.132894;0.132907;0.132919;0.132931;0.132944;0.132956;0.132968;0.132981;0.132993;0.133005;0.133018;0.13303;0.133042;0.133055;0.133067;0.133079;0.133092;0.133104;0.133117;0.133129;0.133141;0.133154;0.133166;0.133178;0.133191;0.133203;0.133215;0.133228;0.13324;0.133252;0.133265;0.133277;0.133289;0.133302;0.133314;0.133326;0.133339;0.133351;0.133364;0.133376;0.133388;0.133401;0.133413;0.133425;0.133438;0.13345;0.133462;0.133475;0.133487;0.133499;0.133512;0.133524;0.133536;0.133549;0.133561;0.133574;0.133586;0.133598;0.133611;0.133623;0.133635;0.133648;0.13366;0.133672;0.133685;0.133697;0.133709;0.133722;0.133734;0.133746;0.133759;0.133771;0.133783;0.133796;0.133808;0.133821;0.133833;0.133845;0.133858;0.13387;0.133882;0.133895;0.133907;0.133919;0.133932;0.133944;0.133956;0.133969;0.133981;0.133993;0.134006;0.134018;0.13403;0.134043;0.134055;0.134068;0.13408;0.134092;0.134105;0.134117;0.134129;0.134142;0.134154;0.134166;0.134179;0.134191;0.134203;0.134216;0.134228;0.13424;0.134253;0.134265;0.134277;0.13429;0.134302;0.134315;0.134327;0.134339;0.134352;0.134364;0.134376;0.134389;0.134401;0.134413;0.134426;0.134438;0.13445;0.134463;0.134475;0.134487;0.1345;0.134512;0.134525;0.134537;0.134549;0.134562;0.134574;0.134586;0.134599;0.134611;0.134623;0.134636;0.134648;0.13466;0.134673;0.134685;0.134697;0.13471;0.134722;0.134734;0.134747;0.134759;0.134772;0.134784;0.134796;0.134809;0.134821;0.134833;0.134846;0.134858;0.13487;0.134883;0.134895;0.134907;0.13492;0.134932;0.134944;0.134957;0.134969;0.134981;0.134994;0.135006;0.135019;0.135031;0.135043;0.135056;0.135068;0.13508;0.135093;0.135105;0.135117;0.13513;0.135142;0.135154;0.135167;0.135179;0.135191;0.135204;0.135216;0.135228;0.135241;0.135253;0.135266;0.135278;0.13529;0.135303;0.135315;0.135327;0.13534;0.135352;0.135364;0.135377;0.135389;0.135401;0.135414;0.135426;0.135438;0.135451;0.135463;0.135476;0.135488;0.1355;0.135513;0.135525;0.135537;0.13555;0.135562;0.135574;0.135587;0.135599;0.135611;0.135624;0.135636;0.135648;0.135661;0.135673;0.135685;0.135698;0.13571;0.135723;0.135735;0.135747;0.13576;0.135772;0.135784;0.135797;0.135809;0.135821;0.135834;0.135846;0.135858;0.135871;0.135883;0.135895;0.135908;0.13592;0.135932;0.135945;0.135957;0.13597;0.135982;0.135994;0.136007;0.136019;0.136031;0.136044;0.136056;0.136068;0.136081;0.136093;0.136105;0.136118;0.13613;0.136142;0.136155;0.136167;0.13618;0.136192;0.136204;0.136217;0.136229;0.136241;0.136254;0.136266;0.136278;0.136291;0.136303;0.136315;0.136328;0.13634;0.136352;0.136365;0.136377;0.136389;0.136402;0.136414;0.136427;0.136439;0.136451;0.136464;0.136476;0.136488;0.136501;0.136513;0.136525;0.136538;0.13655;0.136562;0.136575;0.136587;0.136599;0.136612;0.136624;0.136636;0.136649;0.136661;0.136674;0.136686;0.136698;0.136711;0.136723;0.136735;0.136748;0.13676;0.136772;0.136785;0.136797;0.136809;0.136822;0.136834;0.136846;0.136859;0.136871;0.136883;0.136896;0.136908;0.136921;0.136933;0.136945;0.136958;0.13697;0.136982;0.136995;0.137007;0.137019;0.137032;0.137044;0.137056;0.137069;0.137081;0.137093;0.137106;0.137118;0.137131;0.137143;0.137155;0.137168;0.13718;0.137192;0.137205;0.137217;0.137229;0.137242;0.137254;0.137266;0.137279;0.137291;0.137303;0.137316;0.137328;0.13734;0.137353;0.137365;0.137378;0.13739;0.137402;0.137415;0.137427;0.137439;0.137452;0.137464;0.137476;0.137489;0.137501;0.137513;0.137526;0.137538;0.13755;0.137563;0.137575;0.137587;0.1376;0.137612;0.137625;0.137637;0.137649;0.137662;0.137674;0.137686;0.137699;0.137711;0.137723;0.137736;0.137748;0.13776;0.137773;0.137785;0.137797;0.13781;0.137822;0.137835;0.137847;0.137859;0.137872;0.137884;0.137896;0.137909;0.137921;0.137933;0.137946;0.137958;0.13797;0.137983;0.137995;0.138007;0.13802;0.138032;0.138044;0.138057;0.138069;0.138082;0.138094;0.138106;0.138119;0.138131;0.138143;0.138156;0.138168;0.13818;0.138193;0.138205;0.138217;0.13823;0.138242;0.138254;0.138267;0.138279;0.138291;0.138304;0.138316;0.138329;0.138341;0.138353;0.138366;0.138378;0.13839;0.138403;0.138415;0.138427;0.13844;0.138452;0.138464;0.138477;0.138489;0.138501;0.138514;0.138526;0.138539;0.138551;0.138563;0.138576;0.138588;0.1386;0.138613;0.138625;0.138637;0.13865;0.138662;0.138674;0.138687;0.138699;0.138711;0.138724;0.138736;0.138748;0.138761;0.138773;0.138786;0.138798;0.13881;0.138823;0.138835;0.138847;0.13886;0.138872;0.138884;0.138897;0.138909;0.138921;0.138934;0.138946;0.138958;0.138971;0.138983;0.138995;0.139008;0.13902;0.139033;0.139045;0.139057;0.13907;0.139082;0.139094;0.139107;0.139119;0.139131;0.139144;0.139156;0.139168;0.139181;0.139193;0.139205;0.139218;0.13923;0.139243;0.139255;0.139267;0.13928;0.139292;0.139304;0.139317;0.139329;0.139341;0.139354;0.139366;0.139378;0.139391;0.139403;0.139415;0.139428;0.13944;0.139452;0.139465;0.139477;0.13949;0.139502;0.139514;0.139527;0.139539;0.139551;0.139564;0.139576;0.139588;0.139601;0.139613;0.139625;0.139638;0.13965;0.139662;0.139675;0.139687;0.139699;0.139712;0.139724;0.139737;0.139749;0.139761;0.139774;0.139786;0.139798;0.139811;0.139823;0.139835;0.139848;0.13986;0.139872;0.139885;0.139897;0.139909;0.139922;0.139934;0.139946;0.139959;0.139971;0.139984;0.139996;0.140008;0.140021;0.140033;0.140045;0.140058;0.14007;0.140082;0.140095;0.140107;0.140119;0.140132;0.140144;0.140156;0.140169;0.140181;0.140194;0.140206;0.140218;0.140231;0.140243;0.140255;0.140268;0.14028;0.140292;0.140305;0.140317;0.140329;0.140342;0.140354;0.140366;0.140379;0.140391;0.140403;0.140416;0.140428;0.140441;0.140453;0.140465;0.140478;0.14049;0.140502;0.140515;0.140527;0.140539;0.140552;0.140564;0.140576;0.140589;0.140601;0.140613;0.140626;0.140638;0.14065;0.140663;0.140675;0.140688;0.1407;0.140712;0.140725;0.140737;0.140749;0.140762;0.140774;0.140786;0.140799;0.140811;0.140823;0.140836;0.140848;0.14086;0.140873;0.140885;0.140897;0.14091;0.140922;0.140935;0.140947;0.140959;0.140972;0.140984;0.140996;0.141009;0.141021;0.141033;0.141046;0.141058;0.14107;0.141083;0.141095;0.141107;0.14112;0.141132;0.141145;0.141157;0.141169;0.141182;0.141194;0.141206;0.141219;0.141231;0.141243;0.141256;0.141268;0.14128;0.141293;0.141305;0.141317;0.14133;0.141342;0.141354;0.141367;0.141379;0.141392;0.141404;0.141416;0.141429;0.141441;0.141453;0.141466;0.141478;0.14149;0.141503;0.141515;0.141527;0.14154;0.141552;0.141564;0.141577;0.141589;0.141601;0.141614;0.141626;0.141639;0.141651;0.141663;0.141676;0.141688;0.1417;0.141713;0.141725;0.141737;0.14175;0.141762;0.141774;0.141787;0.141799;0.141811;0.141824;0.141836;0.141849;0.141861;0.141873;0.141886;0.141898;0.14191;0.141923;0.141935;0.141947;0.14196;0.141972;0.141984;0.141997;0.142009;0.142021;0.142034;0.142046;0.142058;0.142071;0.142083;0.142096;0.142108;0.14212;0.142133;0.142145;0.142157;0.14217;0.142182;0.142194;0.142207;0.142219;0.142231;0.142244;0.142256;0.142268;0.142281;0.142293;0.142305;0.142318;0.14233;0.142343;0.142355;0.142367;0.14238;0.142392;0.142404;0.142417;0.142429;0.142441;0.142454;0.142466;0.142478;0.142491;0.142503;0.142515;0.142528;0.14254;0.142552;0.142565;0.142577;0.14259;0.142602;0.142614;0.142627;0.142639;0.142651;0.142664;0.142676;0.142688;0.142701;0.142713;0.142725;0.142738;0.14275;0.142762;0.142775;0.142787;0.1428;0.142812;0.142824;0.142837;0.142849;0.142861;0.142874;0.142886;0.142898;0.142911;0.142923;0.142935;0.142948;0.14296;0.142972;0.142985;0.142997;0.143009;0.143022;0.143034;0.143047;0.143059;0.143071;0.143084;0.143096;0.143108;0.143121;0.143133;0.143145;0.143158;0.14317;0.143182;0.143195;0.143207;0.143219;0.143232;0.143244;0.143257;0.143269;0.143281;0.143294;0.143306;0.143318;0.143331;0.143343;0.143355;0.143368;0.14338;0.143392;0.143405;0.143417;0.143429;0.143442;0.143454;0.143466;0.143479;0.143491;0.143504;0.143516;0.143528;0.143541;0.143553;0.143565;0.143578;0.14359;0.143602;0.143615;0.143627;0.143639;0.143652;0.143664;0.143676;0.143689;0.143701;0.143713;0.143726;0.143738;0.143751;0.143763;0.143775;0.143788;0.1438;0.143812;0.143825;0.143837;0.143849;0.143862;0.143874;0.143886;0.143899;0.143911;0.143923;0.143936;0.143948;0.14396;0.143973;0.143985;0.143998;0.14401;0.144022;0.144035;0.144047;0.144059;0.144072;0.144084;0.144096;0.144109;0.144121;0.144133;0.144146;0.144158;0.14417;0.144183;0.144195;0.144208;0.14422;0.144232;0.144245;0.144257;0.144269;0.144282;0.144294;0.144306;0.144319;0.144331;0.144343;0.144356;0.144368;0.14438;0.144393;0.144405;0.144417;0.14443;0.144442;0.144455;0.144467;0.144479;0.144492;0.144504;0.144516;0.144529;0.144541;0.144553;0.144566;0.144578;0.14459;0.144603;0.144615;0.144627;0.14464;0.144652;0.144664;0.144677;0.144689;0.144702;0.144714;0.144726;0.144739;0.144751;0.144763;0.144776;0.144788;0.1448;0.144813;0.144825;0.144837;0.14485;0.144862;0.144874;0.144887;0.144899;0.144911;0.144924;0.144936;0.144949;0.144961;0.144973;0.144986;0.144998;0.14501;0.145023;0.145035;0.145047;0.14506;0.145072;0.145084;0.145097;0.145109;0.145121;0.145134;0.145146;0.145159;0.145171;0.145183;0.145196;0.145208;0.14522;0.145233;0.145245;0.145257;0.14527;0.145282;0.145294;0.145307;0.145319;0.145331;0.145344;0.145356;0.145368;0.145381;0.145393;0.145406;0.145418;0.14543;0.145443;0.145455;0.145467;0.14548;0.145492;0.145504;0.145517;0.145529;0.145541;0.145554;0.145566;0.145578;0.145591;0.145603;0.145615;0.145628;0.14564;0.145653;0.145665;0.145677;0.14569;0.145702;0.145714;0.145727;0.145739;0.145751;0.145764;0.145776;0.145788;0.145801;0.145813;0.145825;0.145838;0.14585;0.145863;0.145875;0.145887;0.1459;0.145912;0.145924;0.145937;0.145949;0.145961;0.145974;0.145986;0.145998;0.146011;0.146023;0.146035;0.146048;0.14606;0.146072;0.146085;0.146097;0.14611;0.146122;0.146134;0.146147;0.146159;0.146171;0.146184;0.146196;0.146208;0.146221;0.146233;0.146245;0.146258;0.14627;0.146282;0.146295;0.146307;0.146319;0.146332;0.146344;0.146357;0.146369;0.146381;0.146394;0.146406;0.146418;0.146431;0.146443;0.146455;0.146468;0.14648;0.146492;0.146505;0.146517;0.146529;0.146542;0.146554;0.146566;0.146579;0.146591;0.146604;0.146616;0.146628;0.146641;0.146653;0.146665;0.146678;0.14669;0.146702;0.146715;0.146727;0.146739;0.146752;0.146764;0.146776;0.146789;0.146801;0.146814;0.146826;0.146838;0.146851;0.146863;0.146875;0.146888;0.1469;0.146912;0.146925;0.146937;0.146949;0.146962;0.146974;0.146986;0.146999;0.147011;0.147023;0.147036;0.147048;0.147061;0.147073;0.147085;0.147098;0.14711;0.147122;0.147135;0.147147;0.147159;0.147172;0.147184;0.147196;0.147209;0.147221;0.147233;0.147246;0.147258;0.14727;0.147283;0.147295;0.147308;0.14732;0.147332;0.147345;0.147357;0.147369;0.147382;0.147394;0.147406;0.147419;0.147431;0.147443;0.147456;0.147468;0.14748;0.147493;0.147505;0.147518;0.14753;0.147542;0.147555;0.147567;0.147579;0.147592;0.147604;0.147616;0.147629;0.147641;0.147653;0.147666;0.147678;0.14769;0.147703;0.147715;0.147727;0.14774;0.147752;0.147765;0.147777;0.147789;0.147802;0.147814;0.147826;0.147839;0.147851;0.147863;0.147876;0.147888;0.1479;0.147913;0.147925;0.147937;0.14795;0.147962;0.147974;0.147987;0.147999;0.148012;0.148024;0.148036;0.148049;0.148061;0.148073;0.148086;0.148098;0.14811;0.148123;0.148135;0.148147;0.14816;0.148172;0.148184;0.148197;0.148209;0.148222;0.148234;0.148246;0.148259;0.148271;0.148283;0.148296;0.148308;0.14832;0.148333;0.148345;0.148357;0.14837;0.148382;0.148394;0.148407;0.148419;0.148431;0.148444;0.148456;0.148469;0.148481;0.148493;0.148506;0.148518;0.14853;0.148543;0.148555;0.148567;0.14858;0.148592;0.148604;0.148617;0.148629;0.148641;0.148654;0.148666;0.148678;0.148691;0.148703;0.148716;0.148728;0.14874;0.148753;0.148765;0.148777;0.14879;0.148802;0.148814;0.148827;0.148839;0.148851;0.148864;0.148876;0.148888;0.148901;0.148913;0.148925;0.148938;0.14895;0.148963;0.148975;0.148987;0.149;0.149012;0.149024;0.149037;0.149049;0.149061;0.149074;0.149086;0.149098;0.149111;0.149123;0.149135;0.149148;0.14916;0.149173;0.149185;0.149197;0.14921;0.149222;0.149234;0.149247;0.149259;0.149271;0.149284;0.149296;0.149308;0.149321;0.149333;0.149345;0.149358;0.14937;0.149382;0.149395;0.149407;0.14942;0.149432;0.149444;0.149457;0.149469;0.149481;0.149494;0.149506;0.149518;0.149531;0.149543;0.149555;0.149568;0.14958;0.149592;0.149605;0.149617;0.149629;0.149642;0.149654;0.149667;0.149679;0.149691;0.149704;0.149716;0.149728;0.149741;0.149753;0.149765;0.149778;0.14979;0.149802;0.149815;0.149827;0.149839;0.149852;0.149864;0.149877;0.149889;0.149901;0.149914;0.149926;0.149938;0.149951;0.149963;0.149975;0.149988;0.15;0.150012;0.150025;0.150037;0.150049;0.150062;0.150074;0.150086;0.150099;0.150111;0.150124;0.150136;0.150148;0.150161;0.150173;0.150185;0.150198;0.15021;0.150222;0.150235;0.150247;0.150259;0.150272;0.150284;0.150296;0.150309;0.150321;0.150333;0.150346;0.150358;0.150371;0.150383;0.150395;0.150408;0.15042;0.150432;0.150445;0.150457;0.150469;0.150482;0.150494;0.150506;0.150519;0.150531;0.150543;0.150556;0.150568;0.15058;0.150593;0.150605;0.150618;0.15063;0.150642;0.150655;0.150667;0.150679;0.150692;0.150704;0.150716;0.150729;0.150741;0.150753;0.150766;0.150778;0.15079;0.150803;0.150815;0.150828;0.15084;0.150852;0.150865;0.150877;0.150889;0.150902;0.150914;0.150926;0.150939;0.150951;0.150963;0.150976;0.150988;0.151;0.151013;0.151025;0.151037;0.15105;0.151062;0.151075;0.151087;0.151099;0.151112;0.151124;0.151136;0.151149;0.151161;0.151173;0.151186;0.151198;0.15121;0.151223;0.151235;0.151247;0.15126;0.151272;0.151284;0.151297;0.151309;0.151322;0.151334;0.151346;0.151359;0.151371;0.151383;0.151396;0.151408;0.15142;0.151433;0.151445;0.151457;0.15147;0.151482;0.151494;0.151507;0.151519;0.151532;0.151544;0.151556;0.151569;0.151581;0.151593;0.151606;0.151618;0.15163;0.151643;0.151655;0.151667;0.15168;0.151692;0.151704;0.151717;0.151729;0.151741;0.151754;0.151766;0.151779;0.151791;0.151803;0.151816;0.151828;0.15184;0.151853;0.151865;0.151877;0.15189;0.151902;0.151914;0.151927;0.151939;0.151951;0.151964;0.151976;0.151988;0.152001;0.152013;0.152026;0.152038;0.15205;0.152063;0.152075;0.152087;0.1521;0.152112;0.152124;0.152137;0.152149;0.152161;0.152174;0.152186;0.152198;0.152211;0.152223;0.152235;0.152248;0.15226;0.152273;0.152285;0.152297;0.15231;0.152322;0.152334;0.152347;0.152359;0.152371;0.152384;0.152396;0.152408;0.152421;0.152433;0.152445;0.152458;0.15247;0.152483;0.152495;0.152507;0.15252;0.152532;0.152544;0.152557;0.152569;0.152581;0.152594;0.152606;0.152618;0.152631;0.152643;0.152655;0.152668;0.15268;0.152692;0.152705;0.152717;0.15273;0.152742;0.152754;0.152767;0.152779;0.152791;0.152804;0.152816;0.152828;0.152841;0.152853;0.152865;0.152878;0.15289;0.152902;0.152915;0.152927;0.152939;0.152952;0.152964;0.152977;0.152989;0.153001;0.153014;0.153026;0.153038;0.153051;0.153063;0.153075;0.153088;0.1531;0.153112;0.153125;0.153137;0.153149;0.153162;0.153174;0.153187;0.153199;0.153211;0.153224;0.153236;0.153248;0.153261;0.153273;0.153285;0.153298;0.15331;0.153322;0.153335;0.153347;0.153359;0.153372;0.153384;0.153396;0.153409;0.153421;0.153434;0.153446;0.153458;0.153471;0.153483;0.153495;0.153508;0.15352;0.153532;0.153545;0.153557;0.153569;0.153582;0.153594;0.153606;0.153619;0.153631;0.153643;0.153656;0.153668;0.153681;0.153693;0.153705;0.153718;0.15373;0.153742;0.153755;0.153767;0.153779;0.153792;0.153804;0.153816;0.153829;0.153841;0.153853;0.153866;0.153878;0.153891;0.153903;0.153915;0.153928;0.15394;0.153952;0.153965;0.153977;0.153989;0.154002;0.154014;0.154026;0.154039;0.154051;0.154063;0.154076;0.154088;0.1541;0.154113;0.154125;0.154138;0.15415;0.154162;0.154175;0.154187;0.154199;0.154212;0.154224;